节点5U_Reflection__1__15-33-57-348.txt的数据

Date: Fri Aug 26 15:33:57 CST 2022
User: user
Spectrometer: HR+C2006
触发模式: 0
积分时间 (秒): 5.000000E-3
Scans to average: 1
启用暗噪声校正: true
启用非线性校正: false
滑动平均宽度: 0
X轴模式: Wavelengths
Number of Pixels in Spectrum: 2048
>>>>>Begin Spectral Data<<<<<
1.8442E2	1.703297E2
1.849E2	1.703297E2
1.8537E2	1.703297E2
1.8585E2	-5.545455E2
1.8633E2	-51.35135E0
1.8681E2	51.67785E0
1.8729E2	3.758621E2
1.8777E2	-3.413793E2
1.8824E2	1.271186E2
1.8872E2	-2.52E2
1.892E2	1.57971E2
1.8968E2	3.196078E2
1.9016E2	64.83516E0
1.9064E2	38.06452E0
1.9111E2	5.084746E0
1.9159E2	-1.910828E0
1.9207E2	58.44156E0
1.9255E2	1E2
1.9303E2	-60E0
1.935E2	6.714286E2
1.9398E2	-31E2
1.9446E2	2.454545E2
1.9494E2	3.711864E2
1.9542E2	2.627119E2
1.9589E2	77.57009E0
1.9637E2	3.285714E2
1.9685E2	1.375839E2
1.9733E2	10.23077E2
1.9781E2	-2.636364E2
1.9828E2	68.83117E0
1.9876E2	9E2
1.9924E2	-31.76471E0
1.9972E2	1.227488E2
2.0019E2	6.333333E2
2.0067E2	-1.181818E2
2.0115E2	3.576271E2
2.0163E2	1.207792E2
2.021E2	71.92982E0
2.0258E2	48.05195E0
2.0306E2	-37.42331E0
2.0354E2	5.8E2
2.0401E2	61.44578E0
2.0449E2	11.11111E0
2.0497E2	5.413793E2
2.0545E2	-9.803922E0
2.0592E2	-4.065041E0
2.064E2	2.87013E2
2.0688E2	-58.24176E0
2.0736E2	-5.095238E2
2.0783E2	89.33333E0
2.0831E2	2.548387E2
2.0879E2	73.48066E0
2.0926E2	38.8535E0
2.0974E2	-49.64029E0
2.1022E2	-5.4E2
2.107E2	72.17391E0
2.1117E2	-4.052632E2
2.1165E2	62.7907E0
2.1213E2	1.122137E2
2.126E2	-4.672897E0
2.1308E2	-11.62791E0
2.1356E2	-97.10145E0
2.1403E2	-10.63636E2
2.1451E2	-2.348837E2
2.1499E2	-2.45098E2
2.1546E2	49.32127E0
2.1594E2	1E2
2.1642E2	-55.22388E0
2.1689E2	-77.77778E0
2.1737E2	-33.66667E2
2.1785E2	-56.86275E0
2.1832E2	2.37931E2
2.188E2	5.631579E2
2.1928E2	5.689655E2
2.1975E2	3.030303E0
2.2023E2	34.42623E0
2.2071E2	13.51351E0
2.2118E2	-37.63441E0
2.2166E2	2.318681E2
2.2214E2	-8.230769E2
2.2261E2	1.847059E2
2.2309E2	-8.454545E2
2.2357E2	1.216216E2
2.2404E2	2.142857E2
2.2452E2	1.120301E2
2.2499E2	-23.07692E0
2.2547E2	1E2
2.2595E2	1.935065E2
2.2642E2	41.05263E0
2.269E2	-22.0339E0
2.2738E2	1E2
2.2785E2	60.65574E0
2.2833E2	1.432432E2
2.288E2	-44.33333E2
2.2928E2	-49.45055E0
2.2976E2	-27.8E2
2.3023E2	30.43478E0
2.3071E2	-25.17007E0
2.3118E2	72.41379E0
2.3166E2	86.32479E0
2.3214E2	-1.626866E2
2.3261E2	19.19192E0
2.3309E2	3.947368E2
2.3356E2	4.310345E2
2.3404E2	-1.549451E2
2.3451E2	-13.4E2
2.3499E2	-7E2
2.3547E2	1.727273E2
2.3594E2	-5.315789E2
2.3642E2	57.25191E0
2.3689E2	-1.313253E2
2.3737E2	-91.04478E0
2.3784E2	-2.076923E2
2.3832E2	-96.22642E0
2.388E2	1.150943E2
2.3927E2	11.11111E0
2.3975E2	4.555556E2
2.4022E2	-1.346667E2
2.407E2	81.39535E0
2.4117E2	51.0917E0
2.4165E2	38.46154E0
2.4212E2	2.411765E2
2.426E2	12.2E2
2.4307E2	31.42857E0
2.4355E2	1.597015E2
2.4402E2	-12.67606E0
2.445E2	-1.488889E2
2.4497E2	1.064E2
2.4545E2	2.803738E0
2.4592E2	1E2
2.464E2	-4.333333E2
2.4688E2	-92E0
2.4735E2	1.432432E2
2.4783E2	8.157895E2
2.483E2	2.974026E2
2.4878E2	91.20879E0
2.4925E2	-71.09827E0
2.4972E2	1.146789E2
2.502E2	59.32203E0
2.5067E2	71.31474E0
2.5115E2	-1.068027E2
2.5162E2	4.047619E2
2.521E2	56.65025E0
2.5257E2	92.95154E0
2.5305E2	-67.16418E0
2.5352E2	30.43478E0
2.54E2	-37.14286E0
2.5447E2	1.138728E2
2.5495E2	-43.28358E0
2.5542E2	1.087912E2
2.559E2	1E2
2.5637E2	6.793103E2
2.5685E2	-8.6E2
2.5732E2	-37.57962E0
2.5779E2	5.622222E2
2.5827E2	70.37037E0
2.5874E2	2.185185E2
2.5922E2	-1.373626E2
2.5969E2	15.29412E0
2.6017E2	-1.105263E2
2.6064E2	1E2
2.6111E2	2.962264E2
2.6159E2	82.22222E0
2.6206E2	19.46309E0
2.6254E2	42.6E2
2.6301E2	2.6E2
2.6349E2	11.11111E0
2.6396E2	-1.033898E2
2.6443E2	-91.04478E0
2.6491E2	56.46259E0
2.6538E2	-3.923077E2
2.6586E2	2.955556E2
2.6633E2	-5.660377E0
2.668E2	11.11111E0
2.6728E2	1.918033E2
2.6775E2	23.47826E0
2.6823E2	1.877419E2
2.687E2	-1.181818E2
2.6917E2	1.615385E2
2.6965E2	78.37838E0
2.7012E2	91.87817E0
2.706E2	87.81726E0
2.7107E2	-86.04651E0
2.7154E2	1.813559E2
2.7202E2	4.320755E2
2.7249E2	53.75723E0
2.7296E2	-41.84397E0
2.7344E2	2.945946E2
2.7391E2	-46.93878E0
2.7438E2	77.14286E0
2.7486E2	-7.421053E2
2.7533E2	-1.746269E2
2.758E2	78.66667E0
2.7628E2	76.81159E0
2.7675E2	35.13514E0
2.7722E2	3.422018E2
2.777E2	79.22078E0
2.7817E2	82.97872E0
2.7864E2	-4.052632E2
2.7912E2	1.677966E2
2.7959E2	2.655172E2
2.8006E2	-1.268657E2
2.8054E2	2.223529E2
2.8101E2	33E2
2.8148E2	-14.28571E0
2.8196E2	-2.564103E0
2.8243E2	-7E2
2.829E2	2.116279E2
2.8338E2	13.30769E2
2.8385E2	-4.189189E2
2.8432E2	-17.43119E0
2.848E2	-49.33333E0
2.8527E2	-52.33333E2
2.8574E2	8.571429E0
2.8621E2	-16.20112E0
2.8669E2	-54.21687E0
2.8716E2	24.27984E0
2.8763E2	3.742857E2
2.8811E2	-6.771429E2
2.8858E2	1.564706E2
2.8905E2	-1.181818E2
2.8952E2	-20.81818E2
2.9E2	1.158416E2
2.9047E2	5.444444E2
2.9094E2	-58.24176E0
2.9141E2	1.880734E2
2.9189E2	9E2
2.9236E2	28.88889E0
2.9283E2	-3.465116E2
2.933E2	22.05128E0
2.9378E2	21.47239E0
2.9425E2	2.955556E2
2.9472E2	2.022556E2
2.9519E2	22.89157E0
2.9567E2	11.11111E0
2.9614E2	1.792079E2
2.9661E2	16.56442E0
2.9708E2	21.80451E0
2.9756E2	38.46154E0
2.9803E2	67.47967E0
2.985E2	-9.666667E2
2.9897E2	25.5814E0
2.9944E2	4.147541E2
2.9992E2	-20.09091E2
3.0039E2	-1.666667E2
3.0086E2	-2.294118E2
3.0133E2	1E2
3.0181E2	36E0
3.0228E2	59.27273E0
3.0275E2	-1.666667E2
3.0322E2	38.46154E0
3.0369E2	24.70588E0
3.0416E2	-18.2E2
3.0464E2	-71.96262E0
3.0511E2	-1.790698E2
3.0558E2	-2.906977E2
3.0605E2	-60E0
3.0652E2	2.15942E2
3.07E2	-30.61224E0
3.0747E2	-2.306667E2
3.0794E2	17.75701E0
3.0841E2	-41.66667E2
3.0888E2	-28.33333E2
3.0935E2	-3.631579E2
3.0983E2	88.0597E0
3.103E2	19.19192E0
3.1077E2	1.695652E2
3.1124E2	65.87678E0
3.1171E2	22.99465E0
3.1218E2	-38.1295E0
3.1265E2	2.6E2
3.1313E2	40.8867E0
3.136E2	-17.92829E0
3.1407E2	65.09091E0
3.1454E2	61.44578E0
3.1501E2	-1.532374E2
3.1548E2	-1.828283E2
3.1595E2	47.54098E0
3.1643E2	-30.90909E0
3.169E2	-2.373494E2
3.1737E2	-7.602339E0
3.1784E2	-22.0339E0
3.1831E2	-1.650307E2
3.1878E2	37.89954E0
3.1925E2	12.02749E0
3.1972E2	-36.49289E0
3.2019E2	-53.69458E0
3.2066E2	53.89049E0
3.2114E2	-28.90995E0
3.2161E2	38.7234E0
3.2208E2	-33.86454E0
3.2255E2	-61.13074E0
3.2302E2	-32.89902E0
3.2349E2	-44.16961E0
3.2396E2	34.36807E0
3.2443E2	-19.1067E0
3.249E2	-20.2864E0
3.2537E2	14.04959E0
3.2584E2	-18.84701E0
3.2631E2	-13.29879E0
3.2679E2	-18.73479E0
3.2726E2	25.41133E0
3.2773E2	51.81347E-2
3.282E2	41.46341E0
3.2867E2	11.63708E0
3.2914E2	-4.510109E0
3.2961E2	-12.84211E0
3.3008E2	13.91466E0
3.3055E2	-11.75166E0
3.3102E2	-47.22838E0
3.3149E2	-19.91435E0
3.3196E2	50.91211E0
3.3243E2	-2.12766E0
3.329E2	20.50314E0
3.3337E2	-5.078809E0
3.3384E2	-35.40587E0
3.3431E2	-28.86762E0
3.3478E2	11.35431E0
3.3525E2	-19.36057E0
3.3572E2	-22.20249E0
3.3619E2	-19.40299E0
3.3666E2	57.36138E-2
3.3713E2	-5.614568E0
3.376E2	9.585122E0
3.3807E2	5.443235E0
3.3854E2	1.304864E0
3.3901E2	13.95101E0
3.3948E2	8.63836E0
3.3995E2	9.627728E0
3.4042E2	8.690013E0
3.4089E2	10.23428E0
3.4136E2	9.433962E0
3.4183E2	-12.4451E0
3.423E2	-12.12458E0
3.4277E2	8.60077E0
3.4324E2	8.275174E0
3.4371E2	-15.33421E0
3.4418E2	22.29141E0
3.4465E2	-3.473054E0
3.4512E2	-7.569012E0
3.4559E2	-47.57374E-2
3.4606E2	16.42797E0
3.4653E2	-7.734304E0
3.47E2	27.29754E-2
3.4747E2	27.61457E0
3.4794E2	5.209397E0
3.4841E2	-12.89967E0
3.4888E2	18.62182E0
3.4935E2	11.4656E0
3.4982E2	-7.730673E0
3.5028E2	3.118202E0
3.5075E2	-3.740648E0
3.5122E2	13.57341E0
3.5169E2	4.656669E0
3.5216E2	18.57506E0
3.5263E2	19.94199E0
3.531E2	4.422442E0
3.5357E2	9.601568E0
3.5404E2	2.250804E0
3.5451E2	-86.2641E-2
3.5498E2	-17.08724E0
3.5545E2	7.51143E0
3.5591E2	1.247538E0
3.5638E2	-3.981968E0
3.5685E2	10.31923E0
3.5732E2	-41.28819E-2
3.5779E2	-1.830863E0
3.5826E2	6.276151E0
3.5873E2	-2.020906E0
3.592E2	4.243192E0
3.5967E2	-1.53358E0
3.6013E2	6.705539E0
3.606E2	3.457627E0
3.6107E2	72.60726E-2
3.6154E2	4.254112E0
3.6201E2	9.040488E0
3.6248E2	2.854378E0
3.6295E2	3.805175E0
3.6342E2	7.077256E0
3.6388E2	6.107276E0
3.6435E2	7.790433E0
3.6482E2	3.880318E0
3.6529E2	-21.59827E-2
3.6576E2	3.048109E0
3.6623E2	-5.150391E0
3.667E2	-53.91954E-2
3.6716E2	-2.337891E0
3.6763E2	4.11985E0
3.681E2	7.940552E0
3.6857E2	2.899111E0
3.6904E2	-79.45516E-2
3.6951E2	5.113043E0
3.6997E2	4.794757E0
3.7044E2	41.87286E-2
3.7091E2	7.180757E0
3.7138E2	10.9061E0
3.7185E2	1.612298E0
3.7231E2	3.102804E0
3.7278E2	7.459114E0
3.7325E2	4.754031E0
3.7372E2	6.264083E0
3.7419E2	3.987112E0
3.7465E2	2.383838E0
3.7512E2	-1.514642E0
3.7559E2	7.517221E0
3.7606E2	6.308638E0
3.7653E2	83.46213E-2
3.7699E2	11.36171E0
3.7746E2	8.454662E0
3.7793E2	7.784156E0
3.784E2	2.620622E0
3.7887E2	4.746045E0
3.7933E2	9.063353E0
3.798E2	3.92333E0
3.8027E2	-2.004066E0
3.8074E2	6.477419E0
3.812E2	2.148382E0
3.8167E2	1.775504E0
3.8214E2	1.819479E0
3.8261E2	6.672124E0
3.8307E2	-97.4478E-2
3.8354E2	6.0476E0
3.8401E2	9.698346E0
3.8448E2	58.73261E-2
3.8494E2	2.61269E0
3.8541E2	1.182944E0
3.8588E2	2.158273E0
3.8635E2	3.043133E0
3.8681E2	5.968972E0
3.8728E2	10.92214E0
3.8775E2	1.341047E0
3.8822E2	2.187088E0
3.8868E2	7.402942E0
3.8915E2	92.61253E-2
3.8962E2	40.99245E-2
3.9008E2	5.168629E0
3.9055E2	3.221981E0
3.9102E2	-52.58386E-2
3.9149E2	4.134038E0
3.9195E2	4.765768E0
3.9242E2	1.436572E0
3.9289E2	6.528289E0
3.9335E2	1.65194E0
3.9382E2	8.593526E-2
3.9429E2	4.321114E0
3.9475E2	4.022683E0
3.9522E2	2.679599E0
3.9569E2	2.757456E0
3.9615E2	10.23735E0
3.9662E2	5.436298E0
3.9709E2	1.332637E0
3.9755E2	5.106159E0
3.9802E2	6.342032E0
3.9849E2	3.67893E0
3.9895E2	3.174402E0
3.9942E2	7.006845E0
3.9989E2	6.713439E0
4.0035E2	4.374021E0
4.0082E2	4.501722E0
4.0129E2	6.029757E0
4.0175E2	4.789167E0
4.0222E2	3.00645E0
4.0269E2	4.627723E0
4.0315E2	6.702761E0
4.0362E2	3.754192E0
4.0409E2	4.913389E0
4.0455E2	6.276151E0
4.0502E2	4.964698E0
4.0548E2	5.7886E0
4.0595E2	5.188422E0
4.0642E2	2.770725E0
4.0688E2	4.493276E0
4.0735E2	4.791218E0
4.0782E2	5.497256E0
4.0828E2	4.231166E0
4.0875E2	6.746654E0
4.0921E2	4.70073E0
4.0968E2	6.997468E0
4.1015E2	5.661532E0
4.1061E2	5.869138E0
4.1108E2	5.392621E0
4.1154E2	3.550731E0
4.1201E2	6.440331E0
4.1248E2	6.012951E0
4.1294E2	4.029365E0
4.1341E2	5.760734E0
4.1387E2	5.695722E0
4.1434E2	4.419844E0
4.1481E2	3.994618E0
4.1527E2	6.299013E0
4.1574E2	4.12033E0
4.162E2	5.053171E0
4.1667E2	5.676005E0
4.1713E2	5.490294E0
4.176E2	5.182246E0
4.1806E2	5.58173E0
4.1853E2	5.768428E0
4.19E2	4.083804E0
4.1946E2	5.711143E0
4.1993E2	4.176621E0
4.2039E2	5.379153E0
4.2086E2	4.883488E0
4.2132E2	5.345127E0
4.2179E2	5.981968E0
4.2225E2	5.287435E0
4.2272E2	5.944257E0
4.2318E2	6.925208E0
4.2365E2	5.930925E0
4.2411E2	5.827288E0
4.2458E2	6.516579E0
4.2505E2	6.100584E0
4.2551E2	5.859964E0
4.2598E2	6.655511E0
4.2644E2	6.655808E0
4.2691E2	6.737507E0
4.2737E2	4.89729E0
4.2784E2	6.300919E0
4.283E2	5.66467E0
4.2877E2	4.917782E0
4.2923E2	6.514791E0
4.297E2	7.442064E0
4.3016E2	4.07189E0
4.3063E2	6.257532E0
4.3109E2	6.404019E0
4.3156E2	5.367632E0
4.3202E2	6.178225E0
4.3249E2	6.740475E0
4.3295E2	4.310178E0
4.3341E2	5.292697E0
4.3388E2	6.835715E0
4.3434E2	6.788759E0
4.3481E2	4.282301E0
4.3527E2	5.815803E0
4.3574E2	6.619185E0
4.362E2	5.085468E0
4.3667E2	5.999668E0
4.3713E2	6.947056E0
4.376E2	6.372462E0
4.3806E2	5.160391E0
4.3852E2	7.081585E0
4.3899E2	6.275556E0
4.3945E2	6.179179E0
4.3992E2	7.796145E0
4.4038E2	4.98878E0
4.4085E2	4.971266E0
4.4131E2	5.854371E0
4.4178E2	7.353967E0
4.4224E2	6.057668E0
4.427E2	6.058869E0
4.4317E2	6.798556E0
4.4363E2	6.164202E0
4.441E2	5.835888E0
4.4456E2	6.907911E0
4.4502E2	6.001399E0
4.4549E2	5.63208E0
4.4595E2	6.857653E0
4.4642E2	7.551439E0
4.4688E2	5.873039E0
4.4734E2	4.924261E0
4.4781E2	6.082419E0
4.4827E2	7.22041E0
4.4874E2	7.090324E0
4.492E2	6.714902E0
4.4966E2	7.233843E0
4.5013E2	6.568286E0
4.5059E2	5.966737E0
4.5106E2	6.846647E0
4.5152E2	7.096075E0
4.5198E2	5.393659E0
4.5245E2	6.277414E0
4.5291E2	6.2278E0
4.5337E2	6.724451E0
4.5384E2	6.210184E0
4.543E2	6.676709E0
4.5476E2	6.246956E0
4.5523E2	7.157271E0
4.5569E2	6.804442E0
4.5615E2	7.59752E0
4.5662E2	6.03791E0
4.5708E2	6.610592E0
4.5754E2	5.813718E0
4.5801E2	6.255477E0
4.5847E2	6.83814E0
4.5893E2	8.206004E0
4.594E2	6.570494E0
4.5986E2	5.996684E0
4.6032E2	6.607039E0
4.6079E2	6.438777E0
4.6125E2	6.458112E0
4.6171E2	6.413072E0
4.6218E2	7.019023E0
4.6264E2	6.329762E0
4.631E2	6.655544E0
4.6357E2	7.697928E0
4.6403E2	6.955795E0
4.6449E2	7.452302E0
4.6496E2	8.001889E0
4.6542E2	7.422883E0
4.6588E2	6.898603E0
4.6634E2	6.890596E0
4.6681E2	7.021082E0
4.6727E2	7.084379E0
4.6773E2	6.591816E0
4.682E2	7.634534E0
4.6866E2	7.622498E0
4.6912E2	6.761197E0
4.6958E2	7.36636E0
4.7005E2	7.921857E0
4.7051E2	6.960975E0
4.7097E2	7.146423E0
4.7143E2	7.592788E0
4.719E2	6.767397E0
4.7236E2	7.178694E0
4.7282E2	7.687402E0
4.7328E2	7.209398E0
4.7375E2	6.590416E0
4.7421E2	7.759056E0
4.7467E2	7.426923E0
4.7513E2	6.983364E0
4.756E2	7.728977E0
4.7606E2	7.689589E0
4.7652E2	7.386639E0
4.7698E2	6.696664E0
4.7745E2	7.636619E0
4.7791E2	7.888674E0
4.7837E2	7.45964E0
4.7883E2	8.030608E0
4.793E2	7.347196E0
4.7976E2	7.289644E0
4.8022E2	7.32003E0
4.8068E2	8.27093E0
4.8114E2	8.001989E0
4.8161E2	7.796231E0
4.8207E2	7.569574E0
4.8253E2	7.832621E0
4.8299E2	7.526931E0
4.8345E2	7.210088E0
4.8392E2	7.698543E0
4.8438E2	7.240134E0
4.8484E2	7.277478E0
4.853E2	8.416733E0
4.8576E2	8.052515E0
4.8622E2	7.773265E0
4.8669E2	8.238481E0
4.8715E2	8.247864E0
4.8761E2	7.641382E0
4.8807E2	7.900073E0
4.8853E2	7.985154E0
4.8899E2	7.805903E0
4.8946E2	7.893147E0
4.8992E2	7.94804E0
4.9038E2	8.774216E0
4.9084E2	7.796558E0
4.913E2	7.997284E0
4.9176E2	7.905599E0
4.9223E2	7.731644E0
4.9269E2	7.781154E0
4.9315E2	8.088767E0
4.9361E2	8.30607E0
4.9407E2	8.284034E0
4.9453E2	8.195552E0
4.9499E2	8.58123E0
4.9546E2	7.559442E0
4.9592E2	7.738697E0
4.9638E2	8.433483E0
4.9684E2	7.995879E0
4.973E2	8.527591E0
4.9776E2	8.860026E0
4.9822E2	8.205509E0
4.9868E2	8.47879E0
4.9914E2	8.358513E0
4.9961E2	8.085167E0
5.0007E2	8.363716E0
5.0053E2	8.817594E0
5.0099E2	9.102695E0
5.0145E2	8.599045E0
5.0191E2	8.422557E0
5.0237E2	8.791229E0
5.0283E2	8.874933E0
5.0329E2	8.832409E0
5.0375E2	9.188462E0
5.0421E2	9.568032E0
5.0468E2	9.024984E0
5.0514E2	9.098233E0
5.056E2	9.451786E0
5.0606E2	9.050299E0
5.0652E2	9.271464E0
5.0698E2	9.434495E0
5.0744E2	9.646413E0
5.079E2	9.413428E0
5.0836E2	9.774542E0
5.0882E2	9.782477E0
5.0928E2	9.992251E0
5.0974E2	10.59757E0
5.102E2	10.56225E0
5.1066E2	10.05612E0
5.1112E2	9.974907E0
5.1158E2	10.59653E0
5.1204E2	10.5568E0
5.125E2	10.45882E0
5.1296E2	10.62583E0
5.1342E2	10.96602E0
5.1389E2	11.18018E0
5.1435E2	11.56194E0
5.1481E2	11.33138E0
5.1527E2	11.62511E0
5.1573E2	11.1402E0
5.1619E2	11.4793E0
5.1665E2	11.62584E0
5.1711E2	11.40363E0
5.1757E2	11.5863E0
5.1803E2	12.23466E0
5.1849E2	11.98903E0
5.1895E2	11.69004E0
5.1941E2	12.30319E0
5.1987E2	12.15718E0
5.2033E2	12.31428E0
5.2079E2	12.58397E0
5.2125E2	13.1357E0
5.2171E2	12.60364E0
5.2217E2	13.14735E0
5.2263E2	13.12211E0
5.2308E2	13.56794E0
5.2354E2	13.16899E0
5.24E2	13.30104E0
5.2446E2	13.53767E0
5.2492E2	13.43316E0
5.2538E2	13.83651E0
5.2584E2	13.56348E0
5.263E2	13.3001E0
5.2676E2	13.77449E0
5.2722E2	14.05524E0
5.2768E2	14.38629E0
5.2814E2	13.76826E0
5.286E2	14.30698E0
5.2906E2	14.46122E0
5.2952E2	14.24163E0
5.2998E2	14.69375E0
5.3044E2	14.63938E0
5.309E2	14.39851E0
5.3136E2	14.75558E0
5.3181E2	15.30651E0
5.3227E2	14.56616E0
5.3273E2	14.55845E0
5.3319E2	15.16652E0
5.3365E2	15.38195E0
5.3411E2	15.08831E0
5.3457E2	14.77006E0
5.3503E2	15.85697E0
5.3549E2	15.21424E0
5.3595E2	15.11401E0
5.3641E2	15.14195E0
5.3687E2	15.76805E0
5.3732E2	15.47004E0
5.3778E2	15.57108E0
5.3824E2	15.97374E0
5.387E2	15.99115E0
5.3916E2	15.74942E0
5.3962E2	16.12157E0
5.4008E2	16.32637E0
5.4054E2	16.31652E0
5.4099E2	16.05916E0
5.4145E2	16.24752E0
5.4191E2	16.14094E0
5.4237E2	16.09374E0
5.4283E2	16.31846E0
5.4329E2	16.75586E0
5.4375E2	16.39429E0
5.4421E2	17.08586E0
5.4466E2	16.804E0
5.4512E2	16.05967E0
5.4558E2	16.84731E0
5.4604E2	16.61682E0
5.465E2	16.27164E0
5.4696E2	16.86775E0
5.4741E2	17.37305E0
5.4787E2	16.79126E0
5.4833E2	16.66849E0
5.4879E2	17.17055E0
5.4925E2	17.25212E0
5.4971E2	16.95798E0
5.5016E2	16.47429E0
5.5062E2	17.22609E0
5.5108E2	17.2032E0
5.5154E2	17.33338E0
5.52E2	17.61868E0
5.5245E2	17.32416E0
5.5291E2	17.41301E0
5.5337E2	17.36384E0
5.5383E2	17.39404E0
5.5429E2	17.42015E0
5.5474E2	17.47131E0
5.552E2	17.461E0
5.5566E2	17.21624E0
5.5612E2	17.32496E0
5.5658E2	17.66808E0
5.5703E2	17.37143E0
5.5749E2	17.6755E0
5.5795E2	17.98241E0
5.5841E2	17.80954E0
5.5887E2	18.21307E0
5.5932E2	17.88596E0
5.5978E2	17.80501E0
5.6024E2	17.43313E0
5.607E2	17.10293E0
5.6115E2	18.42946E0
5.6161E2	17.6982E0
5.6207E2	17.36548E0
5.6253E2	17.87752E0
5.6298E2	18.04842E0
5.6344E2	17.93631E0
5.639E2	17.13642E0
5.6436E2	18.18788E0
5.6481E2	17.90192E0
5.6527E2	17.64425E0
5.6573E2	17.70148E0
5.6619E2	17.98943E0
5.6664E2	17.48237E0
5.671E2	18.23457E0
5.6756E2	17.68473E0
5.6801E2	17.61542E0
5.6847E2	17.55929E0
5.6893E2	17.88469E0
5.6939E2	18.05236E0
5.6984E2	18.07237E0
5.703E2	17.98819E0
5.7076E2	17.73138E0
5.7121E2	17.65101E0
5.7167E2	17.45251E0
5.7213E2	18.10708E0
5.7259E2	17.48496E0
5.7304E2	17.39301E0
5.735E2	17.30724E0
5.7396E2	17.23528E0
5.7441E2	17.14612E0
5.7487E2	17.29851E0
5.7533E2	17.42998E0
5.7578E2	16.63235E0
5.7624E2	17.01139E0
5.767E2	17.04101E0
5.7715E2	16.93341E0
5.7761E2	17.17647E0
5.7807E2	17.73845E0
5.7852E2	17.03244E0
5.7898E2	17.03392E0
5.7944E2	17.23304E0
5.7989E2	17.65698E0
5.8035E2	17.47227E0
5.8081E2	17.35743E0
5.8126E2	17.61381E0
5.8172E2	17.66282E0
5.8218E2	17.97444E0
5.8263E2	17.75928E0
5.8309E2	17.18371E0
5.8355E2	17.71305E0
5.84E2	17.61861E0
5.8446E2	17.34712E0
5.8491E2	17.34497E0
5.8537E2	17.86598E0
5.8583E2	17.71719E0
5.8628E2	17.93947E0
5.8674E2	18.38799E0
5.872E2	17.81911E0
5.8765E2	17.86354E0
5.8811E2	17.36231E0
5.8856E2	17.47172E0
5.8902E2	18.00851E0
5.8948E2	17.61991E0
5.8993E2	17.52119E0
5.9039E2	18.04293E0
5.9084E2	17.76503E0
5.913E2	17.52094E0
5.9176E2	17.78456E0
5.9221E2	18.18927E0
5.9267E2	17.55137E0
5.9312E2	17.6586E0
5.9358E2	17.45287E0
5.9403E2	17.85148E0
5.9449E2	17.32461E0
5.9495E2	17.90877E0
5.954E2	18.15082E0
5.9586E2	17.86223E0
5.9631E2	18.43689E0
5.9677E2	18.40792E0
5.9722E2	18.32496E0
5.9768E2	17.63516E0
5.9814E2	18.40325E0
5.9859E2	18.16889E0
5.9905E2	17.89106E0
5.995E2	17.47159E0
5.9996E2	18.19839E0
6.0041E2	18.16506E0
6.0087E2	18.16772E0
6.0132E2	18.21161E0
6.0178E2	18.29038E0
6.0223E2	18.19432E0
6.0269E2	18.80597E0
6.0314E2	18.37053E0
6.036E2	18.02216E0
6.0406E2	18.159E0
6.0451E2	18.19665E0
6.0497E2	18.23598E0
6.0542E2	17.84869E0
6.0588E2	18.1943E0
6.0633E2	18.39207E0
6.0679E2	18.1196E0
6.0724E2	18.69208E0
6.077E2	18.46422E0
6.0815E2	17.94264E0
6.0861E2	18.60812E0
6.0906E2	18.64029E0
6.0952E2	18.8674E0
6.0997E2	18.41024E0
6.1043E2	18.43321E0
6.1088E2	17.94147E0
6.1134E2	18.53987E0
6.1179E2	19.13628E0
6.1224E2	18.96411E0
6.127E2	18.46128E0
6.1315E2	17.76055E0
6.1361E2	17.85858E0
6.1406E2	18.17256E0
6.1452E2	17.96001E0
6.1497E2	18.23735E0
6.1543E2	18.40509E0
6.1588E2	18.35798E0
6.1634E2	19.20024E0
6.1679E2	18.35654E0
6.1725E2	18.18934E0
6.177E2	18.21576E0
6.1815E2	18.64664E0
6.1861E2	17.75901E0
6.1906E2	17.94008E0
6.1952E2	17.81878E0
6.1997E2	18.7E0
6.2043E2	18.4049E0
6.2088E2	18.54825E0
6.2133E2	17.95832E0
6.2179E2	17.76909E0
6.2224E2	18.24243E0
6.227E2	18.05186E0
6.2315E2	18.2253E0
6.2361E2	18.58287E0
6.2406E2	18.55814E0
6.2451E2	19.0965E0
6.2497E2	18.87911E0
6.2542E2	18.71527E0
6.2588E2	18.57036E0
6.2633E2	17.84542E0
6.2678E2	18.35673E0
6.2724E2	18.96195E0
6.2769E2	18.64436E0
6.2815E2	18.91207E0
6.286E2	18.63126E0
6.2905E2	18.84278E0
6.2951E2	19.20823E0
6.2996E2	19.04955E0
6.3041E2	18.56116E0
6.3087E2	18.7109E0
6.3132E2	18.99503E0
6.3178E2	19.05039E0
6.3223E2	18.09707E0
6.3268E2	18.28003E0
6.3314E2	18.93657E0
6.3359E2	19.13432E0
6.3404E2	18.79615E0
6.345E2	18.82959E0
6.3495E2	19.31889E0
6.354E2	18.12248E0
6.3586E2	18.65761E0
6.3631E2	18.7804E0
6.3676E2	18.66779E0
6.3722E2	18.59181E0
6.3767E2	19.18999E0
6.3812E2	18.89242E0
6.3858E2	18.65485E0
6.3903E2	18.65339E0
6.3948E2	18.5799E0
6.3994E2	18.06958E0
6.4039E2	18.3644E0
6.4084E2	18.4615E0
6.413E2	18.06412E0
6.4175E2	18.02399E0
6.422E2	17.8764E0
6.4266E2	18.44064E0
6.4311E2	17.78098E0
6.4356E2	17.74765E0
6.4401E2	17.96456E0
6.4447E2	18.03828E0
6.4492E2	17.30994E0
6.4537E2	17.61726E0
6.4583E2	17.41406E0
6.4628E2	17.06665E0
6.4673E2	17.45616E0
6.4718E2	17.022E0
6.4764E2	17.0193E0
6.4809E2	17.61621E0
6.4854E2	17.76453E0
6.49E2	16.70824E0
6.4945E2	17.54705E0
6.499E2	17.51965E0
6.5035E2	16.60604E0
6.5081E2	16.13875E0
6.5126E2	16.84649E0
6.5171E2	17.00045E0
6.5216E2	16.57883E0
6.5262E2	16.93164E0
6.5307E2	16.61211E0
6.5352E2	17.30892E0
6.5397E2	16.76636E0
6.5443E2	16.04688E0
6.5488E2	16.64782E0
6.5533E2	16.90669E0
6.5578E2	16.84535E0
6.5624E2	16.32106E0
6.5669E2	16.51829E0
6.5714E2	15.41215E0
6.5759E2	16.56298E0
6.5804E2	16.91696E0
6.585E2	16.79612E0
6.5895E2	16.78507E0
6.594E2	17.1543E0
6.5985E2	16.40772E0
6.6031E2	16.69086E0
6.6076E2	17.4863E0
6.6121E2	16.56013E0
6.6166E2	15.56836E0
6.6211E2	17.02199E0
6.6257E2	16.31312E0
6.6302E2	16.39834E0
6.6347E2	15.79953E0
6.6392E2	15.8061E0
6.6437E2	16.12751E0
6.6482E2	15.90381E0
6.6528E2	15.69625E0
6.6573E2	15.69052E0
6.6618E2	15.76482E0
6.6663E2	15.84346E0
6.6708E2	14.95939E0
6.6753E2	15.77592E0
6.6799E2	15.27626E0
6.6844E2	16.08541E0
6.6889E2	14.85175E0
6.6934E2	14.96582E0
6.6979E2	15.46055E0
6.7024E2	16.02004E0
6.707E2	15.43701E0
6.7115E2	15.9637E0
6.716E2	15.59416E0
6.7205E2	15.1846E0
6.725E2	14.98938E0
6.7295E2	15.38994E0
6.734E2	15.56563E0
6.7386E2	14.80308E0
6.7431E2	15.61191E0
6.7476E2	15.38142E0
6.7521E2	14.31239E0
6.7566E2	15.57445E0
6.7611E2	16.00079E0
6.7656E2	15.54856E0
6.7701E2	14.94856E0
6.7746E2	15.7555E0
6.7792E2	15.48374E0
6.7837E2	15.14071E0
6.7882E2	15.71336E0
6.7927E2	16.41895E0
6.7972E2	16.3176E0
6.8017E2	15.73116E0
6.8062E2	15.82247E0
6.8107E2	15.89922E0
6.8152E2	15.92258E0
6.8197E2	16.76707E0
6.8243E2	16.58526E0
6.8288E2	16.2368E0
6.8333E2	17.08083E0
6.8378E2	17.28615E0
6.8423E2	16.66199E0
6.8468E2	16.24847E0
6.8513E2	17.41098E0
6.8558E2	17.53558E0
6.8603E2	18.28307E0
6.8648E2	18.56139E0
6.8693E2	19.0219E0
6.8738E2	18.90365E0
6.8783E2	19.54537E0
6.8828E2	20.96263E0
6.8873E2	19.99696E0
6.8918E2	18.95635E0
6.8964E2	20.71745E0
6.9009E2	21.22887E0
6.9054E2	21.38898E0
6.9099E2	22.10704E0
6.9144E2	21.71795E0
6.9189E2	22.48629E0
6.9234E2	22.29394E0
6.9279E2	22.33074E0
6.9324E2	24.01736E0
6.9369E2	24.11712E0
6.9414E2	24.64091E0
6.9459E2	25.00103E0
6.9504E2	25.96341E0
6.9549E2	26.4614E0
6.9594E2	25.82514E0
6.9639E2	25.79736E0
6.9684E2	25.60021E0
6.9729E2	27.7827E0
6.9774E2	27.09259E0
6.9819E2	28.56628E0
6.9864E2	28.75858E0
6.9909E2	30.03646E0
6.9954E2	28.60973E0
6.9999E2	29.18318E0
7.0044E2	31.34975E0
7.0089E2	30.72377E0
7.0134E2	30.40866E0
7.0179E2	31.451E0
7.0224E2	31.54511E0
7.0269E2	33.66165E0
7.0314E2	31.4419E0
7.0359E2	33.19337E0
7.0404E2	32.81257E0
7.0448E2	34.53776E0
7.0493E2	34.54953E0
7.0538E2	32.58642E0
7.0583E2	33.50291E0
7.0628E2	33.2962E0
7.0673E2	35.858E0
7.0718E2	34.86938E0
7.0763E2	36.1416E0
7.0808E2	36.44393E0
7.0853E2	35.9703E0
7.0898E2	37.3601E0
7.0943E2	37.00233E0
7.0988E2	36.78388E0
7.1033E2	36.35613E0
7.1078E2	38.7582E0
7.1123E2	37.81807E0
7.1167E2	37.43332E0
7.1212E2	37.51296E0
7.1257E2	38.92819E0
7.1302E2	38.89122E0
7.1347E2	38.82765E0
7.1392E2	39.7731E0
7.1437E2	37.66086E0
7.1482E2	37.88979E0
7.1527E2	39.19951E0
7.1572E2	38.87057E0
7.1617E2	37.74969E0
7.1661E2	39.38136E0
7.1706E2	43.06209E0
7.1751E2	39.13694E0
7.1796E2	41.00523E0
7.1841E2	37.75076E0
7.1886E2	38.28386E0
7.1931E2	39.3382E0
7.1976E2	41.15502E0
7.202E2	40.93562E0
7.2065E2	41.05974E0
7.211E2	42.09485E0
7.2155E2	41.52004E0
7.22E2	42.40388E0
7.2245E2	41.58107E0
7.229E2	41.05205E0
7.2334E2	40.49639E0
7.2379E2	40.02669E0
7.2424E2	42.14303E0
7.2469E2	40.92049E0
7.2514E2	40.30541E0
7.2559E2	41.47571E0
7.2604E2	43.26057E0
7.2648E2	43.41697E0
7.2693E2	42.65592E0
7.2738E2	42.19558E0
7.2783E2	42.41258E0
7.2828E2	44.21045E0
7.2873E2	46.42545E0
7.2917E2	43.20927E0
7.2962E2	43.29539E0
7.3007E2	44.40839E0
7.3052E2	46.2997E0
7.3097E2	42.8616E0
7.3141E2	43.82206E0
7.3186E2	45.87865E0
7.3231E2	46.64151E0
7.3276E2	45.29827E0
7.3321E2	46.28406E0
7.3365E2	45.27842E0
7.341E2	45.32639E0
7.3455E2	46.0568E0
7.35E2	46.48048E0
7.3545E2	46.97131E0
7.3589E2	46.42226E0
7.3634E2	46.41514E0
7.3679E2	48.04108E0
7.3724E2	44.32396E0
7.3768E2	48.01894E0
7.3813E2	47.7314E0
7.3858E2	48.25271E0
7.3903E2	47.97361E0
7.3947E2	48.11122E0
7.3992E2	46.23799E0
7.4037E2	45.84094E0
7.4082E2	46.70582E0
7.4127E2	46.70553E0
7.4171E2	45.94659E0
7.4216E2	46.37206E0
7.4261E2	49.15194E0
7.4305E2	46.65716E0
7.435E2	47.53083E0
7.4395E2	49.05851E0
7.444E2	47.41496E0
7.4484E2	47.30595E0
7.4529E2	47.00182E0
7.4574E2	46.85032E0
7.4619E2	46.20731E0
7.4663E2	48.42124E0
7.4708E2	48.57382E0
7.4753E2	47.52079E0
7.4797E2	48.03064E0
7.4842E2	49.30635E0
7.4887E2	47.63114E0
7.4932E2	48.44323E0
7.4976E2	48.66097E0
7.5021E2	47.20585E0
7.5066E2	49.01936E0
7.511E2	49.83548E0
7.5155E2	50.54213E0
7.52E2	45.68375E0
7.5245E2	45.51212E0
7.5289E2	48.9178E0
7.5334E2	47.03323E0
7.5379E2	47.4564E0
7.5423E2	47.15846E0
7.5468E2	46.83988E0
7.5513E2	47.014E0
7.5557E2	49.92986E0
7.5602E2	50.63334E0
7.5647E2	48.35916E0
7.5691E2	47.39115E0
7.5736E2	46.56578E0
7.5781E2	48.12066E0
7.5825E2	46.66667E0
7.587E2	47.35748E0
7.5915E2	50.78367E0
7.5959E2	48.79506E0
7.6004E2	45.1474E0
7.6048E2	48.37724E0
7.6093E2	49.10784E0
7.6138E2	45.95174E0
7.6182E2	50.8742E0
7.6227E2	47.54098E0
7.6272E2	44.30111E0
7.6316E2	49.48226E0
7.6361E2	50.55955E0
7.6406E2	45.4034E0
7.645E2	48.85748E0
7.6495E2	52.43617E0
7.6539E2	46.57966E0
7.6584E2	48.22829E0
7.6629E2	47.26283E0
7.6673E2	51.45956E0
7.6718E2	48.94787E0
7.6762E2	47.41659E0
7.6807E2	49.61414E0
7.6852E2	48.91205E0
7.6896E2	46.00401E0
7.6941E2	47.55792E0
7.6985E2	50.01214E0
7.703E2	47.65827E0
7.7075E2	48.11884E0
7.7119E2	48.38915E0
7.7164E2	47.56346E0
7.7208E2	45.95868E0
7.7253E2	51.98576E0
7.7297E2	50.70714E0
7.7342E2	47.69206E0
7.7387E2	48.53532E0
7.7431E2	51.66204E0
7.7476E2	46.06155E0
7.752E2	50.2844E0
7.7565E2	48.67064E0
7.7609E2	48.41344E0
7.7654E2	47.98905E0
7.7699E2	51.01197E0
7.7743E2	49.57616E0
7.7788E2	47.12037E0
7.7832E2	50.01302E0
7.7877E2	49.28454E0
7.7921E2	49.69872E0
7.7966E2	50.18908E0
7.801E2	49.37605E0
7.8055E2	49.36618E0
7.8099E2	47.26071E0
7.8144E2	49.45074E0
7.8188E2	50.37418E0
7.8233E2	48.01706E0
7.8277E2	48.3871E0
7.8322E2	49.97653E0
7.8367E2	46.4329E0
7.8411E2	47.9127E0
7.8456E2	48.19926E0
7.85E2	49.67014E0
7.8545E2	48.03073E0
7.8589E2	47.18807E0
7.8634E2	49.89611E0
7.8678E2	47.42695E0
7.8723E2	47.46418E0
7.8767E2	50.05713E0
7.8812E2	47.6315E0
7.8856E2	49.13651E0
7.89E2	50.01695E0
7.8945E2	50.15211E0
7.8989E2	49.74807E0
7.9034E2	46.84853E0
7.9078E2	50.20361E0
7.9123E2	48.317E0
7.9167E2	49.17515E0
7.9212E2	49.20483E0
7.9256E2	49.29387E0
7.9301E2	49.69759E0
7.9345E2	49.42685E0
7.939E2	46.88758E0
7.9434E2	47.502E0
7.9479E2	47.42775E0
7.9523E2	49.67758E0
7.9567E2	50.01956E0
7.9612E2	50.01871E0
7.9656E2	49.37337E0
7.9701E2	47.61964E0
7.9745E2	48.34206E0
7.979E2	49.27148E0
7.9834E2	50.35823E0
7.9878E2	48.84728E0
7.9923E2	48.19292E0
7.9967E2	50.79798E0
8.0012E2	44.64598E0
8.0056E2	45.68749E0
8.0101E2	45.99603E0
8.0145E2	48.4956E0
8.0189E2	47.26462E0
8.0234E2	48.86943E0
8.0278E2	50.97462E0
8.0323E2	47.48865E0
8.0367E2	50.41001E0
8.0411E2	52.46624E0
8.0456E2	51.03887E0
8.05E2	49.08792E0
8.0545E2	51.53735E0
8.0589E2	50.50986E0
8.0633E2	50.24295E0
8.0678E2	47.29071E0
8.0722E2	52.37958E0
8.0767E2	45.09478E0
8.0811E2	47.59775E0
8.0855E2	47.99479E0
8.09E2	49.36406E0
8.0944E2	48.05195E0
8.0988E2	47.19188E0
8.1033E2	49.04068E0
8.1077E2	46.75875E0
8.1121E2	53.06019E0
8.1166E2	51.92145E0
8.121E2	46.73208E0
8.1255E2	51.00206E0
8.1299E2	46.88194E0
8.1343E2	47.26257E0
8.1388E2	46.26738E0
8.1432E2	48.74395E0
8.1476E2	48.9488E0
8.1521E2	42.25179E0
8.1565E2	49.10413E0
8.1609E2	53.5315E0
8.1654E2	47.40167E0
8.1698E2	46.61452E0
8.1742E2	48.42975E0
8.1787E2	46.27646E0
8.1831E2	46.75669E0
8.1875E2	43.79117E0
8.1919E2	47.49939E0
8.1964E2	45.38014E0
8.2008E2	47.45951E0
8.2052E2	57.16954E0
8.2097E2	45.50068E0
8.2141E2	48.56562E0
8.2185E2	51.30593E0
8.223E2	51.16214E0
8.2274E2	48.5051E0
8.2318E2	59.87548E0
8.2362E2	49.93508E0
8.2407E2	44.32492E0
8.2451E2	47.13798E0
8.2495E2	53.58882E0
8.254E2	49.41411E0
8.2584E2	48.29651E0
8.2628E2	53.31706E0
8.2672E2	53.77098E0
8.2717E2	49.55816E0
8.2761E2	50.56773E0
8.2805E2	47.99079E0
8.285E2	47.39782E0
8.2894E2	42.096E0
8.2938E2	51.52157E0
8.2982E2	47.89486E0
8.3027E2	40.42351E0
8.3071E2	49.27845E0
8.3115E2	52.45571E0
8.3159E2	47.90267E0
8.3204E2	51.53792E0
8.3248E2	52.41636E0
8.3292E2	41.39469E0
8.3336E2	47.1923E0
8.338E2	52.82792E0
8.3425E2	47.81451E0
8.3469E2	45.7006E0
8.3513E2	47.67204E0
8.3557E2	51.3892E0
8.3602E2	49.11596E0
8.3646E2	51.36941E0
8.369E2	52.02425E0
8.3734E2	52.20508E0
8.3778E2	47.63576E0
8.3823E2	52.2801E0
8.3867E2	49.20896E0
8.3911E2	53.09716E0
8.3955E2	50.11705E0
8.3999E2	47.05274E0
8.4044E2	48.05195E0
8.4088E2	49.77731E0
8.4132E2	53.72039E0
8.4176E2	49.68877E0
8.422E2	48.3871E0
8.4265E2	46.33846E0
8.4309E2	45.88882E0
8.4353E2	56.44591E0
8.4397E2	57.74447E0
8.4441E2	49.94662E0
8.4485E2	47.35776E0
8.453E2	52.60931E0
8.4574E2	47.97391E0
8.4618E2	48.24579E0
8.4662E2	50.73675E0
8.4706E2	49.50166E0
8.475E2	54.73708E0
8.4795E2	42.05333E0
8.4839E2	50.20747E0
8.4883E2	56.23433E0
8.4927E2	48.62901E0
8.4971E2	46.6031E0
8.5015E2	49.17602E0
8.5059E2	44.52624E0
8.5104E2	46.01117E0
8.5148E2	52.6638E0
8.5192E2	52.65497E0
8.5236E2	49.76367E0
8.528E2	43.17926E0
8.5324E2	49.20964E0
8.5368E2	45.35582E0
8.5412E2	38.53032E0
8.5456E2	65.04493E0
8.5501E2	44.75193E0
8.5545E2	52.90504E0
8.5589E2	55.89168E0
8.5633E2	55.45147E0
8.5677E2	47.85626E0
8.5721E2	55.79543E0
8.5765E2	45.62925E0
8.5809E2	47.65644E0
8.5853E2	48.9488E0
8.5897E2	49.38586E0
8.5942E2	46.17737E0
8.5986E2	45.29746E0
8.603E2	49.253E0
8.6074E2	54.08985E0
8.6118E2	49.83431E0
8.6162E2	48.77985E0
8.6206E2	49.93692E0
8.625E2	49.5176E0
8.6294E2	43.2843E0
8.6338E2	51.80723E0
8.6382E2	51.11709E0
8.6426E2	44.08716E0
8.647E2	47.96579E0
8.6514E2	43.32196E0
8.6559E2	43.74088E0
8.6603E2	43.04676E0
8.6647E2	46.68392E0
8.6691E2	51.22239E0
8.6735E2	48.89716E0
8.6779E2	52.44356E0
8.6823E2	50.26367E0
8.6867E2	48.35072E0
8.6911E2	50.37221E0
8.6955E2	58.10072E0
8.6999E2	48.84419E0
8.7043E2	45.72706E0
8.7087E2	53.03597E0
8.7131E2	49.29125E0
8.7175E2	43.18367E0
8.7219E2	51.19424E0
8.7263E2	52.01476E0
8.7307E2	50.16794E0
8.7351E2	50.76188E0
8.7395E2	54.4736E0
8.7439E2	52.51379E0
8.7483E2	48.9977E0
8.7527E2	56.497E0
8.7571E2	52.95672E0
8.7615E2	47.37896E0
8.7659E2	45.1983E0
8.7703E2	47.0947E0
8.7747E2	50.83361E0
8.7791E2	47.37846E0
8.7835E2	56.07633E0
8.7879E2	46.24713E0
8.7923E2	48.35979E0
8.7967E2	49.3968E0
8.8011E2	56.06407E0
8.8055E2	51.86992E0
8.8099E2	53.40371E0
8.8143E2	52.48059E0
8.8187E2	43.99192E0
8.8231E2	49.9154E0
8.8275E2	60.64107E0
8.8319E2	50.1892E0
8.8363E2	45.40835E0
8.8406E2	46.86025E0
8.845E2	48.52547E0
8.8494E2	47.89981E0
8.8538E2	52.63724E0
8.8582E2	50.35728E0
8.8626E2	51.74798E0
8.867E2	49.38429E0
8.8714E2	51.73858E0
8.8758E2	49.7348E0
8.8802E2	44.84872E0
8.8846E2	59.91649E0
8.889E2	52.86773E0
8.8934E2	45.48915E0
8.8978E2	47.15262E0
8.9021E2	60.97561E0
8.9065E2	49.18966E0
8.9109E2	50.39799E0
8.9153E2	51.89979E0
8.9197E2	45.29601E0
8.9241E2	37.88074E0
8.9285E2	63.86222E0
8.9329E2	58.71511E0
8.9373E2	45.50182E0
8.9417E2	53.98048E0
8.946E2	50.59861E0
8.9504E2	47.43822E0
8.9548E2	36.95522E0
8.9592E2	40.88136E0
8.9636E2	54.77583E0
8.968E2	51.10024E0
8.9724E2	48.8105E0
8.9768E2	49.80635E0
8.9811E2	56.41736E0
8.9855E2	59.06977E0
8.9899E2	82.41758E0
8.9943E2	51.02041E0
8.9987E2	48.05195E0
9.0031E2	57.1554E0
9.0075E2	65.85928E0
9.0118E2	50.95477E0
9.0162E2	50.4665E0
9.0206E2	49.00095E0
9.025E2	58.44156E0
9.0294E2	48.61837E0
9.0338E2	66.01483E0
9.0382E2	39.00441E0
9.0425E2	44.50185E0
9.0469E2	41.73972E0
9.0513E2	52.05575E0
9.0557E2	48.40539E0
9.0601E2	60.60365E0
9.0644E2	72.41379E0
9.0688E2	45.47391E0
9.0732E2	56.03533E0
9.0776E2	58.58102E0
9.082E2	47.4305E0
9.0864E2	19.3658E0
9.0907E2	32.50346E0
9.0951E2	47.84633E0
9.0995E2	38.59844E0
9.1039E2	56.11429E0
9.1083E2	60.13001E0
9.1126E2	53.52697E0
9.117E2	25.70781E0
9.1214E2	60.47261E0
9.1258E2	84.16764E0
9.1302E2	44.07295E0
9.1345E2	53.25248E0
9.1389E2	62.00257E0
9.1433E2	51.63241E0
9.1477E2	52.94118E0
9.152E2	68.94244E0
9.1564E2	45.88665E0
9.1608E2	44.05594E0
9.1652E2	73.67459E0
9.1695E2	69.09871E0
9.1739E2	45.23008E0
9.1783E2	40.02829E0
9.1827E2	58.97436E0
9.187E2	40.5988E0
9.1914E2	45.82924E0
9.1958E2	60.47261E0
9.2002E2	56.11429E0
9.2045E2	38.65815E0
9.2089E2	66.76329E0
9.2133E2	61.21212E0
9.2177E2	41.98161E0
9.222E2	40.18692E0
9.2264E2	49.74671E0
9.2308E2	47.96031E0
9.2352E2	44.00949E0
9.2395E2	44.65409E0
9.2439E2	49.12043E0
9.2483E2	25.25952E0
9.2526E2	51.73299E0
9.257E2	89.69957E0
9.2614E2	56.42023E0
9.2658E2	52.55042E0
9.2701E2	39.25687E0
9.2745E2	-1.035197E0
9.2789E2	15.04425E0
9.2832E2	66.96165E0
9.2876E2	34.90364E0
9.292E2	60.12024E-2
9.2963E2	3.492063E0
9.3007E2	-2.923977E0
9.3051E2	32.45383E0
9.3095E2	44.72727E0
9.3138E2	1.916031E2
9.3182E2	-84.61538E0
9.3226E2	4.891892E2
9.3269E2	34.42623E0
9.3313E2	2.156627E2
9.3357E2	1.050955E2
9.34E2	43.85965E0
9.3444E2	-70.99237E0
9.3488E2	86.08696E0
9.3531E2	36.76976E0
9.3575E2	69.46565E0
9.3619E2	-1.242991E2
9.3662E2	-2.294118E2
9.3706E2	7.736842E2
9.3749E2	-8.6E2
9.3793E2	-36.05442E0
9.3837E2	28.49162E0
9.388E2	-11.30435E0
9.3924E2	-91.04478E0
9.3968E2	-2.564103E0
9.4011E2	32.90323E0
9.4055E2	36.69065E0
9.4099E2	-92.77108E0
9.4142E2	-1.976744E2
9.4186E2	90.12346E0
9.4229E2	1.061069E2
9.4273E2	-2.259259E2
9.4317E2	2.813333E2
9.436E2	1E2
9.4404E2	-1.626866E2
9.4447E2	84.31373E0
9.4491E2	78.37838E0
9.4535E2	-9.181818E2
9.4578E2	81.46718E0
9.4622E2	4.2E2
9.4665E2	1.791209E2
9.4709E2	2.777778E2
9.4753E2	28.49162E0
9.4796E2	-58.77863E0
9.484E2	-49.67742E0
9.4883E2	-4.538462E2
9.4927E2	45.20548E0
9.4971E2	74.33155E0
9.5014E2	94.34629E0
9.5058E2	15.31579E2
9.5101E2	50.66079E0
9.5145E2	72.20077E0
9.5188E2	1.260163E2
9.5232E2	-1.206897E2
9.5275E2	-4.714286E2
9.5319E2	-24.06417E0
9.5363E2	1.585366E2
9.5406E2	52.94118E0
9.545E2	17.75701E0
9.5493E2	-46.08696E0
9.5537E2	-26.31579E0
9.558E2	41.99396E0
9.5624E2	61.44578E0
9.5667E2	47.34177E0
9.5711E2	-66.84492E0
9.5754E2	34.50292E0
9.5798E2	1.175824E2
9.5842E2	91.51943E0
9.5885E2	1.323232E2
9.5929E2	74.33155E0
9.5972E2	53.90947E0
9.6016E2	25.08361E0
9.6059E2	38.7234E0
9.6103E2	2.491525E2
9.6146E2	-88.71795E0
9.619E2	74.33155E0
9.6233E2	1.40404E2
9.6277E2	43.61233E0
9.632E2	1.087912E2
9.6364E2	88.48921E0
9.6407E2	71.92982E0
9.6451E2	-14.28571E0
9.6494E2	65.46763E0
9.6538E2	1.530806E2
9.6581E2	17.13147E0
9.6625E2	-60E0
9.6668E2	89.0411E0
9.6712E2	10.61453E0
9.6755E2	19.30836E0
9.6798E2	80.61389E0
9.6842E2	59.91285E0
9.6885E2	44.41088E0
9.6929E2	38.90909E0
9.6972E2	54.6841E0
9.7016E2	4.71464E0
9.7059E2	14.00651E0
9.7103E2	1.163265E2
9.7146E2	69.17688E0
9.719E2	60.59957E0
9.7233E2	1.263736E2
9.7277E2	-17.33333E0
9.732E2	18.0212E0
9.7363E2	13.45646E0
9.7407E2	34.50292E0
9.745E2	50.4644E0
9.7494E2	13.94422E0
9.7537E2	82.02247E0
9.7581E2	17.13147E0
9.7624E2	41.55251E0
9.7667E2	1E2
9.7711E2	1.530806E2
9.7754E2	57.20165E0
9.7798E2	12.40876E0
9.7841E2	59.84556E0
9.7885E2	-63.03318E0
9.7928E2	63.57268E0
9.7971E2	61.51203E0
9.8015E2	92.38095E0
9.8058E2	45.01109E0
9.8102E2	69.14601E0
9.8145E2	50.4644E0
9.8188E2	36.99284E0
9.8232E2	25.43689E0
9.8275E2	1E2
9.8318E2	25.5814E0
9.8362E2	31.42857E0
9.8405E2	71.34986E0
9.8449E2	32.32628E0
9.8492E2	18.61042E0
9.8535E2	55.30726E0
9.8579E2	7.335907E0
9.8622E2	15.04425E0
9.8665E2	54.52196E0
9.8709E2	39.33649E0
9.8752E2	36.99284E0
9.8796E2	41.13712E0
9.8839E2	55.70033E0
9.8882E2	55.37849E0
9.8926E2	8.794788E0
9.8969E2	59.20177E0
9.9012E2	1.113074E2
9.9056E2	47.98762E0
9.9099E2	18.98734E0
9.9142E2	26.22478E0
9.9186E2	-2.463054E0
9.9229E2	9.818182E0
9.9272E2	-4.347826E0
9.9316E2	1E2
9.9359E2	57.1831E0
9.9402E2	62.52252E0
9.9446E2	1.232727E2
9.9489E2	22.99465E0
9.9532E2	36.25498E0
9.9576E2	33.09091E0
9.9619E2	30.43478E0
9.9662E2	20.74303E0
9.9706E2	27.7592E0
9.9749E2	55.37849E0
9.9792E2	40.8867E0
9.9835E2	30.8642E0
9.9879E2	74.12399E0
9.9922E2	24.27984E0
9.9965E2	29.88048E0
10.001E2	88.32117E0
10.005E2	57.1831E0
10.01E2	-20.9622E0
10.014E2	64.0257E0
10.018E2	47.63636E0
10.023E2	-53.04348E0
10.027E2	74.33155E0
10.031E2	2.674419E2
10.035E2	55.82822E0
10.04E2	25.86873E0
10.044E2	-1.086957E2
10.048E2	73.18436E0
10.053E2	-45.45455E0
10.057E2	90.64327E0
10.061E2	15.0838E0
10.066E2	-6.403941E0
10.07E2	-92E0
10.074E2	46.66667E0
10.079E2	1.840491E0
10.083E2	-32.3741E0
10.087E2	1.13913E2
10.092E2	-69.69697E0
10.096E2	25.99119E0
10.1E2	93.38843E0
10.105E2	74.60317E0
10.109E2	-2.534884E2
10.113E2	47.76632E0
10.118E2	18.6E2
10.122E2	23.80952E0
10.126E2	-80.86957E0
10.131E2	1.187135E2
10.135E2	89.0411E0
10.139E2	20.98765E0
10.144E2	-3.816794E0
10.148E2	72.88136E0
10.152E2	46.01227E0
10.157E2	-1.453988E2
10.161E2	1.470588E2
10.165E2	2.105691E2
10.17E2	2.777778E2
10.174E2	36E0
10.178E2	70.03745E0
10.182E2	-1.120482E2
10.187E2	1.688172E2
10.191E2	88.48921E0
10.195E2	1.065041E2
10.2E2	24.02235E0
10.204E2	40.08811E0
10.208E2	68.71508E0
10.213E2	-1.666667E2
10.217E2	34.35897E0
10.221E2	3.742857E2
10.226E2	6.405405E2
10.23E2	1.347826E2
10.234E2	5.952381E2
10.239E2	1.208696E2
10.243E2	-8.843537E0
10.247E2	28.49162E0
10.252E2	58.29384E0
10.256E2	43.85965E0
10.26E2	-14.28571E0
10.264E2	1.108844E2
10.269E2	-26.31579E0
10.273E2	8.571429E0
10.277E2	1E2
10.282E2	1.175824E2
10.286E2	-4.485714E2
10.29E2	-14.28571E0
10.295E2	26.38037E0
10.299E2	-79.43925E0
10.303E2	-84.61538E0
10.308E2	4E0
10.312E2	-66.95652E0
10.316E2	-1.01626E2
10.321E2	2.116279E2
10.325E2	1.695652E2
10.329E2	32.82443E0
10.333E2	92.52336E0
10.338E2	1E2
10.342E2	36.56388E0
10.346E2	65.46763E0
10.351E2	-3.965517E2
10.355E2	1.949153E2
10.359E2	-35.59322E0
10.364E2	75.3304E0
10.368E2	3.867925E2
10.372E2	-5.494505E0
10.377E2	-1.461538E2
10.381E2	-72.04301E0
10.385E2	-2.885714E2
10.389E2	7.769231E2
10.394E2	2.432836E2
10.398E2	14.33333E2
10.402E2	-2.885714E2
10.407E2	1E2
10.411E2	-20.75472E0
10.415E2	46.66667E0
10.42E2	-18.70968E0
10.424E2	1.213333E2
10.428E2	-6.024096E0
10.433E2	21.8E2
10.437E2	1.258065E2
10.441E2	-30.61224E0
10.445E2	2.73913E2
10.45E2	60.97561E0
10.454E2	75.75758E0
10.458E2	11.11111E0
10.463E2	28.45528E0
10.467E2	22.42424E0
10.471E2	1.126984E2
10.476E2	2.488372E2
10.48E2	1.195122E2
10.484E2	33.00493E0
10.488E2	1.177778E2
10.493E2	76.23762E0
10.497E2	1.347826E2
10.501E2	-80.86957E0
10.506E2	84.51613E0
10.51E2	1.135593E2
10.514E2	-2.809524E2
10.519E2	1.888889E2
10.523E2	8.272727E2
10.527E2	17.94872E0
10.531E2	5.8E2
10.536E2	1.086022E2
10.54E2	-1.376238E2
10.544E2	-15.50802E0
10.549E2	89.61039E0
10.553E2	1.122137E2
10.557E2	16.88312E0
10.562E2	1.510638E2
10.566E2	1.380952E2
10.57E2	3.666667E2
10.574E2	43.22581E0
10.579E2	-4.347826E0
10.583E2	6.714286E2
10.587E2	-49.75369E0
10.592E2	4.169811E2
10.596E2	37.3913E0
10.6E2	-76.27119E0
10.605E2	-2.534884E2
10.609E2	-48.83721E0
10.613E2	3.847458E2
10.617E2	-43.28358E0
10.622E2	-2.885714E2
10.626E2	-23E2
10.63E2	-11.14815E2
10.635E2	-4.61194E2
10.639E2	3.285714E2
10.643E2	5.882353E0
10.647E2	3.296703E0
10.652E2	1.650407E2
10.656E2	22.33333E2
10.66E2	2.142857E2
10.665E2	2.297297E2
10.669E2	-7E2
10.673E2	44.18605E0
10.677E2	2.777778E2
10.682E2	24.5283E0
10.686E2	26.01156E0
10.69E2	-7E2
10.695E2	-2.555556E2
10.699E2	1.301887E2
10.703E2	1.410256E2
10.708E2	2.442623E2
10.712E2	-5.494505E0
10.716E2	1.376471E2
10.72E2	79.48718E0
10.725E2	6.62963E2
10.729E2	2.495327E2
10.733E2	3.614458E0
10.738E2	30.8642E0
10.742E2	-10.34483E0
10.746E2	-17.66667E2
10.75E2	1.655738E2
10.755E2	-3.190476E2
10.759E2	92.07921E0
10.763E2	12.08791E0
10.768E2	7.246377E0
10.772E2	-36.17021E0
10.776E2	1.827586E2
10.78E2	31.42857E0
10.785E2	44.82759E0
10.789E2	1E2
10.793E2	-90.47619E0
10.798E2	75.75758E0
10.802E2	37.66234E0
10.806E2	88.4058E0
10.81E2	1.135593E2
10.815E2	47.66355E0
10.819E2	-1.409639E2
10.823E2	2.976471E2
10.828E2	-10.2E2
10.832E2	-2.809524E2
10.836E2	1.234568E0
10.84E2	-4.818182E2
10.845E2	44.82759E0
10.849E2	21.8E2
10.853E2	8.384615E2
10.857E2	2.098039E2
10.862E2	2.52381E2
10.866E2	95.37572E0
10.87E2	2.777778E2
10.875E2	2.6E2
10.879E2	-2.555556E2
10.883E2	1.655738E2
10.887E2	37.2549E0
10.892E2	15.98174E0
10.896E2	1.551724E2
10.9E2	-26.73267E0
10.905E2	-3.444444E2
10.909E2	15.15385E2
10.913E2	39.62264E0
10.917E2	-2.368421E2
10.922E2	3.666667E2
10.926E2	12.2E2
10.93E2	6.818182E2
10.934E2	2.04918E2
10.939E2	-2.428571E2
10.943E2	4.477612E0
10.947E2	1E2
10.952E2	1.688172E2
10.956E2	-7E2
10.96E2	-1.847458E2
10.964E2	48.8E0
10.969E2	-46.23656E0
10.973E2	1E2
10.977E2	2.931034E2
10.981E2	41.55251E0
10.986E2	15.78947E0
10.99E2	1.851064E2
10.994E2	57.47508E0
10.999E2	-30.49645E0
11.003E2	-15E2
11.007E2	-5.315789E2
11.011E2	1E2
11.016E2	-1.033898E2
11.02E2	3.113208E2
11.024E2	-12.47368E2
11.028E2	27.27273E0
11.033E2	1E2
11.037E2	18.6E2
11.041E2	6.538462E2
11.046E2	86.44068E0
11.05E2	3.311111E2
11.054E2	-2.675676E2
11.058E2	71.08434E0
11.063E2	65.5914E0
11.067E2	5.088889E2
11.071E2	-77.77778E0
11.075E2	61.90476E0
11.08E2	55.9633E0
11.084E2	1.597015E2
11.088E2	3.169492E2
11.093E2	1.203046E2
11.097E2	25.5814E0
11.101E2	1.554455E2
