节点7U_Reflection__3__15-52-17-526.txt的数据

Date: Fri Aug 26 15:52:17 CST 2022
User: user
Spectrometer: HR+C2006
触发模式: 0
积分时间 (秒): 5.000000E-3
Scans to average: 1
启用暗噪声校正: true
启用非线性校正: false
滑动平均宽度: 0
X轴模式: Wavelengths
Number of Pixels in Spectrum: 2048
>>>>>Begin Spectral Data<<<<<
1.8442E2	-1.473684E2
1.849E2	-1.473684E2
1.8537E2	-1.473684E2
1.8585E2	29.23077E2
1.8633E2	30.03953E0
1.8681E2	-51.70068E0
1.8729E2	5.142857E2
1.8777E2	32.81596E0
1.8824E2	29.26829E0
1.8872E2	22.66667E2
1.892E2	1.271676E2
1.8968E2	6.268657E2
1.9016E2	2.819672E2
1.9064E2	-21.50538E0
1.9111E2	1.960784E2
1.9159E2	4.819277E0
1.9207E2	-59.01639E0
1.9255E2	12E2
1.9303E2	-12.61538E2
1.935E2	27.14932E0
1.9398E2	6.482759E2
1.9446E2	1.049834E2
1.9494E2	24.36149E0
1.9542E2	-3.085714E2
1.9589E2	-2.431373E2
1.9637E2	-2.547771E0
1.9685E2	70.87087E0
1.9733E2	6.666667E2
1.9781E2	1.52443E2
1.9828E2	1.194805E2
1.9876E2	13.62725E0
1.9924E2	50.70423E0
1.9972E2	57.99257E0
2.0019E2	-4.313725E2
2.0067E2	48.86878E0
2.0115E2	8.022923E0
2.0163E2	23.1405E0
2.021E2	1.647059E2
2.0258E2	2.554217E2
2.0306E2	14.81481E0
2.0354E2	1.067873E2
2.0401E2	1.251282E2
2.0449E2	40.1487E0
2.0497E2	1.109557E2
2.0545E2	-89.55224E0
2.0592E2	11.00917E0
2.064E2	-26.77485E0
2.0688E2	99.64912E0
2.0736E2	-17.53846E2
2.0783E2	-5.230769E2
2.0831E2	40.1487E0
2.0879E2	15.41582E0
2.0926E2	67.77409E0
2.0974E2	1.765766E2
2.1022E2	-66.08696E0
2.107E2	-1.403509E0
2.1117E2	19.93355E0
2.1165E2	-2.134969E2
2.1213E2	-1.714286E2
2.126E2	49.28367E0
2.1308E2	57.99257E0
2.1356E2	-1.490196E2
2.1403E2	1.253731E2
2.1451E2	6.105263E2
2.1499E2	1.115242E2
2.1546E2	7.034483E2
2.1594E2	1.333333E2
2.1642E2	2.044444E2
2.1689E2	-5.194805E0
2.1737E2	86.4E0
2.1785E2	48.86878E0
2.1832E2	21.39918E0
2.188E2	17.83439E0
2.1928E2	7.643312E0
2.1975E2	-65.67164E0
2.2023E2	-55.91398E0
2.2071E2	3.741935E2
2.2118E2	1.614035E2
2.2166E2	-1.879518E2
2.2214E2	-2.95082E2
2.2261E2	52.32068E0
2.2309E2	1.446809E2
2.2357E2	64.12214E0
2.2404E2	-13.64829E0
2.2452E2	1.787234E2
2.2499E2	33.33333E2
2.2547E2	53.86819E0
2.2595E2	-38.70968E0
2.2642E2	18.46154E0
2.269E2	93.28063E0
2.2738E2	-52.17391E0
2.2785E2	1.130802E2
2.2833E2	-9.756098E0
2.288E2	3.287671E0
2.2928E2	1.333333E2
2.2976E2	-3.686275E2
2.3023E2	-78.30688E0
2.3071E2	-16E0
2.3118E2	15.58442E0
2.3166E2	1.350158E2
2.3214E2	27.62763E0
2.3261E2	2.289017E2
2.3309E2	-2.315789E2
2.3356E2	-1.403509E0
2.3404E2	68.02721E0
2.3451E2	94.49378E0
2.3499E2	3.064935E2
2.3547E2	2.11465E2
2.3594E2	11.44828E2
2.3642E2	31.90184E0
2.3689E2	81.37536E0
2.3737E2	12E2
2.3784E2	2.736842E2
2.3832E2	1.174721E2
2.388E2	3.384615E2
2.3927E2	93.82716E0
2.3975E2	1.76E2
2.4022E2	19.9095E0
2.407E2	-1.634783E2
2.4117E2	1.248677E2
2.4165E2	92.58427E0
2.4212E2	16.92308E2
2.426E2	17.83439E0
2.4307E2	1.363128E2
2.4355E2	-1.923664E2
2.4402E2	63.82022E0
2.445E2	63.34842E0
2.4497E2	-34.28571E0
2.4545E2	1.095541E2
2.4592E2	1.095541E2
2.464E2	1.68262E2
2.4688E2	48.40764E0
2.4735E2	-5.311475E2
2.4783E2	-2.163934E2
2.483E2	1.910828E2
2.4878E2	49.12281E0
2.4925E2	29.02208E0
2.4972E2	-62.38532E0
2.502E2	2.901961E2
2.5067E2	-4E2
2.5115E2	-24.92308E2
2.5162E2	21.05263E0
2.521E2	1.197452E2
2.5257E2	-2.222222E2
2.5305E2	1.248677E2
2.5352E2	24.30769E2
2.54E2	98.36066E0
2.5447E2	-63.69427E0
2.5495E2	-85.88957E0
2.5542E2	1.003257E2
2.559E2	-30.03003E0
2.5637E2	2.044444E2
2.5685E2	21.05263E0
2.5732E2	2.468085E2
2.5779E2	57.99257E0
2.5827E2	-23.16602E0
2.5874E2	54.32099E0
2.5922E2	2.26087E2
2.5969E2	1.577982E2
2.6017E2	1.315961E2
2.6064E2	62.08251E0
2.6111E2	-2.26506E2
2.6159E2	-96.65428E0
2.6206E2	-69.84127E0
2.6254E2	23.97476E0
2.6301E2	2.458716E2
2.6349E2	57.14286E0
2.6396E2	85.90022E0
2.6443E2	-16E0
2.6491E2	1.984733E2
2.6538E2	25.24917E0
2.6586E2	1.468354E2
2.6633E2	-1.078261E2
2.668E2	3.518072E2
2.6728E2	-52.48869E0
2.6775E2	1.307506E2
2.6823E2	-4E2
2.687E2	77.80822E0
2.6917E2	3.064935E2
2.6965E2	-4E2
2.7012E2	31.20567E0
2.706E2	-33.02752E0
2.7107E2	1.894737E2
2.7154E2	2.018349E2
2.7202E2	-1.866667E2
2.7249E2	-17.27575E0
2.7296E2	-5.730659E0
2.7344E2	29.71429E0
2.7391E2	3.486239E2
2.7438E2	1.399177E2
2.7486E2	27.20403E0
2.7533E2	-4.494382E0
2.758E2	1.791411E2
2.7628E2	5.074627E2
2.7675E2	-7.434944E0
2.7722E2	-33.73494E0
2.777E2	11.15789E2
2.7817E2	51.50685E0
2.7864E2	1.647059E2
2.7912E2	3.111111E2
2.7959E2	52.83019E0
2.8006E2	50.76709E0
2.8054E2	99.62825E0
2.8101E2	78.91156E0
2.8148E2	63.34842E0
2.8196E2	2.736842E2
2.8243E2	-6.461538E2
2.829E2	28.25279E0
2.8338E2	99.60474E0
2.8385E2	1.818182E2
2.8432E2	-15.18987E0
2.848E2	-57.80347E0
2.8527E2	-72.28916E0
2.8574E2	1.889571E2
2.8621E2	99.66777E0
2.8669E2	1.007634E2
2.8716E2	2.576687E2
2.8763E2	-1.935484E2
2.8811E2	42.55319E0
2.8858E2	-17.91045E0
2.8905E2	-2.933333E2
2.8952E2	80.32454E0
2.9E2	95.71788E0
2.9047E2	62.42775E0
2.9094E2	92.30769E0
2.9141E2	93.82716E0
2.9189E2	-89.88764E-2
2.9236E2	2.27451E2
2.9283E2	43.37349E0
2.933E2	1.763033E2
2.9378E2	95.34247E0
2.9425E2	-1.176471E2
2.9472E2	-14.45783E0
2.9519E2	-12.3348E0
2.9567E2	-1.090909E2
2.9614E2	2.009756E2
2.9661E2	-5.286344E0
2.9708E2	-4E2
2.9756E2	63.47607E0
2.9803E2	-2.545455E2
2.985E2	-1.075269E2
2.9897E2	9.302326E0
2.9944E2	80.49536E0
2.9992E2	4.685714E2
3.0039E2	63.34842E0
3.0086E2	51.38539E0
3.0133E2	13.10345E2
3.0181E2	23.61905E0
3.0228E2	-1.163121E2
3.0275E2	-37.17472E0
3.0322E2	-70.92199E0
3.0369E2	-6.006006E0
3.0416E2	1.128767E2
3.0464E2	1.374046E2
3.0511E2	13.21321E0
3.0558E2	40.07859E0
3.0605E2	1.333333E2
3.0652E2	1.249012E2
3.07E2	-3.669725E0
3.0747E2	-10.43478E0
3.0794E2	28E2
3.0841E2	-77.06422E0
3.0888E2	30.10753E0
3.0935E2	64.51613E0
3.0983E2	-5.422222E2
3.103E2	81.32231E0
3.1077E2	22.96395E0
3.1124E2	-54.48505E0
3.1171E2	10.65375E0
3.1218E2	-1.049869E0
3.1265E2	-63.69427E0
3.1313E2	72.57384E0
3.136E2	-28.69198E0
3.1407E2	20.67416E0
3.1454E2	1.505646E0
3.1501E2	-1.538462E2
3.1548E2	16.18497E0
3.1595E2	-28.08717E0
3.1643E2	30.0112E0
3.169E2	58.61514E0
3.1737E2	-34.64567E0
3.1784E2	-5.479452E0
3.1831E2	23.31839E0
3.1878E2	49.21136E0
3.1925E2	33.6261E0
3.1972E2	28.75817E0
3.2019E2	14.61794E0
3.2066E2	28.02548E0
3.2114E2	-42.50797E-2
3.2161E2	18.81785E0
3.2208E2	-44.44444E0
3.2255E2	7.810894E0
3.2302E2	-47.79874E0
3.2349E2	20.50448E0
3.2396E2	-18.49949E0
3.2443E2	5.295675E0
3.249E2	-4.031355E0
3.2537E2	-2.854877E0
3.2584E2	-2.684564E0
3.2631E2	-24.64865E0
3.2679E2	-57.27811E0
3.2726E2	2.543143E0
3.2773E2	3.873467E0
3.282E2	-13.72781E0
3.2867E2	-30.93581E-2
3.2914E2	17.20196E0
3.2961E2	17.85476E0
3.3008E2	-4.344194E0
3.3055E2	12.26354E0
3.3102E2	28.11577E0
3.3149E2	-1.843318E0
3.3196E2	-5.479452E0
3.3243E2	25.75107E0
3.329E2	15.48205E0
3.3337E2	7.68453E0
3.3384E2	25.8317E0
3.3431E2	-29.00627E0
3.3478E2	-26.80592E0
3.3525E2	11.771E0
3.3572E2	4.129387E0
3.3619E2	17.53653E0
3.3666E2	-34.67811E0
3.3713E2	-3.578802E0
3.376E2	5.08044E0
3.3807E2	-13.97495E0
3.3854E2	14.2132E0
3.3901E2	9.128145E0
3.3948E2	2.295253E0
3.3995E2	16.50794E0
3.4042E2	-11.03654E0
3.4089E2	-1.99446E0
3.4136E2	9.387943E0
3.4183E2	-13.01412E0
3.423E2	13.96122E0
3.4277E2	-19.8895E0
3.4324E2	13.77972E0
3.4371E2	1.702128E0
3.4418E2	-6.263982E0
3.4465E2	-4.13997E0
3.4512E2	-4.852014E0
3.4559E2	1.472909E0
3.4606E2	5.388961E0
3.4653E2	28.17788E0
3.47E2	15.50677E0
3.4747E2	-5.537245E0
3.4794E2	2.802429E0
3.4841E2	12.43605E0
3.4888E2	-20.36432E0
3.4935E2	15.81574E0
3.4982E2	1.006832E0
3.5028E2	4.759806E0
3.5075E2	-3.435583E0
3.5122E2	16.90516E0
3.5169E2	14.79433E0
3.5216E2	2.571796E0
3.5263E2	-1.4079E0
3.531E2	18.70165E0
3.5357E2	7.168459E0
3.5404E2	8.138476E0
3.5451E2	-5.729319E0
3.5498E2	10.26852E0
3.5545E2	-3.381806E0
3.5591E2	7.945449E0
3.5638E2	8.248864E0
3.5685E2	-11.7128E0
3.5732E2	-12.96596E-2
3.5779E2	2.169982E0
3.5826E2	-87.52735E-2
3.5873E2	-6.036069E0
3.592E2	3.710575E0
3.5967E2	6.099767E0
3.6013E2	1.705999E0
3.606E2	11.20479E0
3.6107E2	9.596113E0
3.6154E2	-1.512947E0
3.6201E2	6.858247E0
3.6248E2	8.689425E0
3.6295E2	10.74735E0
3.6342E2	13.96445E0
3.6388E2	3.780414E0
3.6435E2	5.077314E0
3.6482E2	-3.403081E0
3.6529E2	11.36989E0
3.6576E2	6.363138E0
3.6623E2	8.612619E0
3.667E2	-1.54497E0
3.6716E2	-87.17519E-2
3.6763E2	1.37756E0
3.681E2	-1.032361E0
3.6857E2	1.381567E0
3.6904E2	6.286187E0
3.6951E2	-3.488563E0
3.6997E2	1.423928E0
3.7044E2	3.110008E0
3.7091E2	2.41838E0
3.7138E2	4.807546E0
3.7185E2	1.538204E0
3.7231E2	3.220371E0
3.7278E2	-63.95452E-2
3.7325E2	7.334491E0
3.7372E2	6.636281E0
3.7419E2	4.010939E0
3.7465E2	6.135176E0
3.7512E2	4.942683E0
3.7559E2	8.020199E0
3.7606E2	1.552393E0
3.7653E2	-2.654476E0
3.7699E2	5.681667E0
3.7746E2	2.471828E0
3.7793E2	2.548321E0
3.784E2	2.950474E0
3.7887E2	-4.561179E0
3.7933E2	-4.112097E0
3.798E2	3.009988E0
3.8027E2	5.729232E0
3.8074E2	7.358086E0
3.812E2	4.219088E0
3.8167E2	1.170491E0
3.8214E2	-33.89256E-2
3.8261E2	5.045301E0
3.8307E2	5.685048E0
3.8354E2	2.287401E0
3.8401E2	2.273721E0
3.8448E2	4.342708E0
3.8494E2	3.991824E0
3.8541E2	-1.324679E0
3.8588E2	2.854033E0
3.8635E2	4.422417E0
3.8681E2	-62.64306E-2
3.8728E2	3.351257E0
3.8775E2	4.419085E0
3.8822E2	4.883058E0
3.8868E2	5.651352E0
3.8915E2	7.184218E0
3.8962E2	2.427512E0
3.9008E2	4.640043E0
3.9055E2	4.301827E0
3.9102E2	4.483188E0
3.9149E2	5.626388E0
3.9195E2	7.476291E0
3.9242E2	4.310243E0
3.9289E2	3.388264E0
3.9335E2	2.579097E0
3.9382E2	72.42004E-2
3.9429E2	1.883579E0
3.9475E2	2.445187E0
3.9522E2	3.09565E0
3.9569E2	4.234392E0
3.9615E2	1.136722E0
3.9662E2	4.667731E0
3.9709E2	4.975663E0
3.9755E2	1.641491E0
3.9802E2	3.542145E0
3.9849E2	5.047837E0
3.9895E2	4.448754E0
3.9942E2	1.698658E0
3.9989E2	3.350158E0
4.0035E2	2.091353E0
4.0082E2	32.61401E-2
4.0129E2	4.108855E0
4.0175E2	3.599442E0
4.0222E2	6.122951E0
4.0269E2	1.252174E0
4.0315E2	3.18455E0
4.0362E2	3.597809E0
4.0409E2	2.518217E0
4.0455E2	2.265653E0
4.0502E2	3.675856E0
4.0548E2	2.155845E0
4.0595E2	45.97012E-2
4.0642E2	3.546486E0
4.0688E2	3.514331E0
4.0735E2	3.435168E0
4.0782E2	2.923197E0
4.0828E2	3.850637E0
4.0875E2	2.627453E0
4.0921E2	2.83023E0
4.0968E2	5.257296E0
4.1015E2	3.879211E0
4.1061E2	2.418548E0
4.1108E2	3.970414E0
4.1154E2	5.378076E0
4.1201E2	1.789137E0
4.1248E2	3.71806E0
4.1294E2	4.149282E0
4.1341E2	2.476551E0
4.1387E2	3.097816E0
4.1434E2	3.685371E0
4.1481E2	2.9265E0
4.1527E2	3.738857E0
4.1574E2	4.119272E0
4.162E2	4.425112E0
4.1667E2	4.434334E0
4.1713E2	3.838483E0
4.176E2	4.232226E0
4.1806E2	2.331791E0
4.1853E2	3.129133E0
4.19E2	4.400132E0
4.1946E2	4.574793E0
4.1993E2	3.800301E0
4.2039E2	4.299549E0
4.2086E2	4.607942E0
4.2132E2	2.745631E0
4.2179E2	3.841184E0
4.2225E2	3.416604E0
4.2272E2	3.22667E0
4.2318E2	3.321437E0
4.2365E2	3.812516E0
4.2411E2	3.735703E0
4.2458E2	3.194468E0
4.2505E2	4.582425E0
4.2551E2	5.178126E0
4.2598E2	2.776518E0
4.2644E2	3.009834E0
4.2691E2	3.81906E0
4.2737E2	3.283465E0
4.2784E2	2.668583E0
4.283E2	4.010597E0
4.2877E2	4.157588E0
4.2923E2	3.889626E0
4.297E2	2.755363E0
4.3016E2	2.238838E0
4.3063E2	3.172045E0
4.3109E2	3.923414E0
4.3156E2	3.717221E0
4.3202E2	2.77415E0
4.3249E2	2.918501E0
4.3295E2	3.15105E0
4.3341E2	3.872273E0
4.3388E2	3.777415E0
4.3434E2	3.635195E0
4.3481E2	4.249362E0
4.3527E2	3.552471E0
4.3574E2	4.046489E0
4.362E2	3.474599E0
4.3667E2	3.70874E0
4.3713E2	3.239483E0
4.376E2	4.291069E0
4.3806E2	4.818743E0
4.3852E2	4.548884E0
4.3899E2	3.783122E0
4.3945E2	3.299688E0
4.3992E2	3.932316E0
4.4038E2	4.346849E0
4.4085E2	4.175042E0
4.4131E2	3.718409E0
4.4178E2	3.121724E0
4.4224E2	4.438013E0
4.427E2	4.129336E0
4.4317E2	2.545258E0
4.4363E2	4.905112E0
4.441E2	4.332265E0
4.4456E2	3.913542E0
4.4502E2	3.007934E0
4.4549E2	2.772539E0
4.4595E2	3.866356E0
4.4642E2	3.992427E0
4.4688E2	3.371317E0
4.4734E2	3.966143E0
4.4781E2	3.246625E0
4.4827E2	4.176941E0
4.4874E2	4.57019E0
4.492E2	4.136205E0
4.4966E2	3.43906E0
4.5013E2	4.786161E0
4.5059E2	3.710103E0
4.5106E2	3.560362E0
4.5152E2	3.814615E0
4.5198E2	4.389834E0
4.5245E2	3.589668E0
4.5291E2	4.560357E0
4.5337E2	3.88318E0
4.5384E2	3.805099E0
4.543E2	3.024439E0
4.5476E2	3.677383E0
4.5523E2	4.451269E0
4.5569E2	3.320266E0
4.5615E2	3.560319E0
4.5662E2	4.540949E0
4.5708E2	3.951031E0
4.5754E2	3.651239E0
4.5801E2	4.73445E0
4.5847E2	4.345868E0
4.5893E2	4.312302E0
4.594E2	4.278344E0
4.5986E2	4.556244E0
4.6032E2	3.279667E0
4.6079E2	4.400162E0
4.6125E2	4.049449E0
4.6171E2	4.537873E0
4.6218E2	4.636027E0
4.6264E2	4.225999E0
4.631E2	5.36608E0
4.6357E2	4.251294E0
4.6403E2	4.022052E0
4.6449E2	4.851085E0
4.6496E2	3.573441E0
4.6542E2	3.410108E0
4.6588E2	3.776976E0
4.6634E2	4.523658E0
4.6681E2	3.514361E0
4.6727E2	4.474849E0
4.6773E2	4.422895E0
4.682E2	3.665514E0
4.6866E2	4.073857E0
4.6912E2	5.080937E0
4.6958E2	3.892359E0
4.7005E2	4.434479E0
4.7051E2	4.002855E0
4.7097E2	4.185599E0
4.7143E2	4.536742E0
4.719E2	3.88177E0
4.7236E2	4.596679E0
4.7282E2	4.130316E0
4.7328E2	4.774723E0
4.7375E2	4.534391E0
4.7421E2	4.849531E0
4.7467E2	4.490036E0
4.7513E2	4.197321E0
4.756E2	4.507695E0
4.7606E2	4.686709E0
4.7652E2	4.323699E0
4.7698E2	5.030082E0
4.7745E2	4.184818E0
4.7791E2	4.026218E0
4.7837E2	4.841936E0
4.7883E2	4.247475E0
4.793E2	4.047585E0
4.7976E2	4.541249E0
4.8022E2	4.351818E0
4.8068E2	4.403739E0
4.8114E2	4.374928E0
4.8161E2	4.267929E0
4.8207E2	3.720613E0
4.8253E2	4.051047E0
4.8299E2	4.792007E0
4.8345E2	4.595696E0
4.8392E2	4.432253E0
4.8438E2	4.259561E0
4.8484E2	4.349522E0
4.853E2	4.467506E0
4.8576E2	4.585636E0
4.8622E2	4.290527E0
4.8669E2	4.063191E0
4.8715E2	4.198267E0
4.8761E2	4.458982E0
4.8807E2	4.491685E0
4.8853E2	4.668011E0
4.8899E2	4.430815E0
4.8946E2	4.675963E0
4.8992E2	4.460127E0
4.9038E2	4.564138E0
4.9084E2	4.738704E0
4.913E2	4.759937E0
4.9176E2	4.785523E0
4.9223E2	5.153758E0
4.9269E2	4.578467E0
4.9315E2	4.551168E0
4.9361E2	4.366622E0
4.9407E2	4.603862E0
4.9453E2	4.568429E0
4.9499E2	4.943845E0
4.9546E2	5.035035E0
4.9592E2	4.40256E0
4.9638E2	4.817517E0
4.9684E2	5.28386E0
4.973E2	5.090948E0
4.9776E2	4.933542E0
4.9822E2	5.253403E0
4.9868E2	5.114699E0
4.9914E2	4.876872E0
4.9961E2	5.234361E0
5.0007E2	5.652004E0
5.0053E2	5.311354E0
5.0099E2	5.284072E0
5.0145E2	5.36977E0
5.0191E2	5.384796E0
5.0237E2	5.199691E0
5.0283E2	5.515863E0
5.0329E2	6.000786E0
5.0375E2	5.622352E0
5.0421E2	5.32889E0
5.0468E2	6.040894E0
5.0514E2	5.845861E0
5.056E2	6.1338E0
5.0606E2	6.31282E0
5.0652E2	6.13049E0
5.0698E2	5.964212E0
5.0744E2	6.279753E0
5.079E2	6.352556E0
5.0836E2	6.298607E0
5.0882E2	6.663013E0
5.0928E2	6.793759E0
5.0974E2	6.532827E0
5.102E2	6.432346E0
5.1066E2	7.101444E0
5.1112E2	6.791396E0
5.1158E2	6.73383E0
5.1204E2	7.308575E0
5.125E2	7.308043E0
5.1296E2	7.116817E0
5.1342E2	7.227809E0
5.1389E2	7.496813E0
5.1435E2	7.274048E0
5.1481E2	7.802933E0
5.1527E2	7.529573E0
5.1573E2	7.430589E0
5.1619E2	8.01471E0
5.1665E2	8.002749E0
5.1711E2	8.168623E0
5.1757E2	8.488293E0
5.1803E2	8.494227E0
5.1849E2	8.522075E0
5.1895E2	8.499042E0
5.1941E2	8.604066E0
5.1987E2	8.628098E0
5.2033E2	9.143463E0
5.2079E2	8.801719E0
5.2125E2	8.452954E0
5.2171E2	8.796376E0
5.2217E2	9.228651E0
5.2263E2	9.421116E0
5.2308E2	9.162393E0
5.2354E2	10.01725E0
5.24E2	9.526957E0
5.2446E2	9.737793E0
5.2492E2	10.34532E0
5.2538E2	9.595529E0
5.2584E2	10.1963E0
5.263E2	10.31663E0
5.2676E2	10.45866E0
5.2722E2	10.11293E0
5.2768E2	10.2167E0
5.2814E2	10.48588E0
5.286E2	10.52124E0
5.2906E2	10.72591E0
5.2952E2	10.49657E0
5.2998E2	10.28254E0
5.3044E2	10.94364E0
5.309E2	10.94456E0
5.3136E2	11.34326E0
5.3181E2	11.13978E0
5.3227E2	11.15021E0
5.3273E2	11.48895E0
5.3319E2	11.04259E0
5.3365E2	11.23649E0
5.3411E2	11.49572E0
5.3457E2	11.19344E0
5.3503E2	11.47009E0
5.3549E2	11.46864E0
5.3595E2	12.13383E0
5.3641E2	11.51428E0
5.3687E2	11.64323E0
5.3732E2	11.77659E0
5.3778E2	11.88922E0
5.3824E2	12.32194E0
5.387E2	12.06839E0
5.3916E2	11.94234E0
5.3962E2	12.21046E0
5.4008E2	12.14929E0
5.4054E2	12.14971E0
5.4099E2	11.94518E0
5.4145E2	12.54091E0
5.4191E2	12.52464E0
5.4237E2	12.70455E0
5.4283E2	12.4287E0
5.4329E2	12.73326E0
5.4375E2	12.9067E0
5.4421E2	12.44581E0
5.4466E2	12.52559E0
5.4512E2	12.75465E0
5.4558E2	12.28353E0
5.4604E2	12.49224E0
5.465E2	12.54209E0
5.4696E2	12.62816E0
5.4741E2	12.59733E0
5.4787E2	12.43016E0
5.4833E2	12.87717E0
5.4879E2	12.71403E0
5.4925E2	13.09766E0
5.4971E2	13.47429E0
5.5016E2	13.04806E0
5.5062E2	13.37756E0
5.5108E2	13.33806E0
5.5154E2	13.01787E0
5.52E2	13.04843E0
5.5245E2	13.31066E0
5.5291E2	13.52775E0
5.5337E2	13.27729E0
5.5383E2	13.24051E0
5.5429E2	13.55964E0
5.5474E2	13.42393E0
5.552E2	13.35902E0
5.5566E2	13.96128E0
5.5612E2	13.26704E0
5.5658E2	13.78765E0
5.5703E2	13.1367E0
5.5749E2	13.6562E0
5.5795E2	13.22638E0
5.5841E2	13.76571E0
5.5887E2	13.99639E0
5.5932E2	13.00851E0
5.5978E2	13.69017E0
5.6024E2	14.05598E0
5.607E2	13.77557E0
5.6115E2	14.04234E0
5.6161E2	13.30335E0
5.6207E2	13.73911E0
5.6253E2	13.60661E0
5.6298E2	14.2055E0
5.6344E2	13.92709E0
5.639E2	13.62566E0
5.6436E2	13.79884E0
5.6481E2	14.28946E0
5.6527E2	13.38782E0
5.6573E2	13.57194E0
5.6619E2	13.7331E0
5.6664E2	13.68075E0
5.671E2	13.45463E0
5.6756E2	13.61438E0
5.6801E2	13.61051E0
5.6847E2	13.48804E0
5.6893E2	13.19031E0
5.6939E2	13.54423E0
5.6984E2	12.87964E0
5.703E2	13.40749E0
5.7076E2	13.32553E0
5.7121E2	13.13341E0
5.7167E2	13.52505E0
5.7213E2	13.66379E0
5.7259E2	13.60155E0
5.7304E2	13.08461E0
5.735E2	13.0598E0
5.7396E2	13.18248E0
5.7441E2	13.38135E0
5.7487E2	13.16211E0
5.7533E2	13.26066E0
5.7578E2	13.26173E0
5.7624E2	12.85042E0
5.767E2	12.91512E0
5.7715E2	12.73632E0
5.7761E2	13.21692E0
5.7807E2	12.86083E0
5.7852E2	13.36808E0
5.7898E2	13.13318E0
5.7944E2	13.47536E0
5.7989E2	12.95478E0
5.8035E2	13.37481E0
5.8081E2	13.05375E0
5.8126E2	13.62548E0
5.8172E2	13.46202E0
5.8218E2	13.35031E0
5.8263E2	12.98696E0
5.8309E2	13.5201E0
5.8355E2	12.99131E0
5.84E2	13.06795E0
5.8446E2	12.8141E0
5.8491E2	13.2323E0
5.8537E2	13.32927E0
5.8583E2	13.10419E0
5.8628E2	13.24246E0
5.8674E2	13.34453E0
5.872E2	13.12092E0
5.8765E2	13.2581E0
5.8811E2	13.65442E0
5.8856E2	13.50256E0
5.8902E2	13.80178E0
5.8948E2	13.58163E0
5.8993E2	12.91825E0
5.9039E2	12.916E0
5.9084E2	12.89038E0
5.913E2	13.18357E0
5.9176E2	12.5247E0
5.9221E2	13.27185E0
5.9267E2	13.46649E0
5.9312E2	13.47547E0
5.9358E2	13.29995E0
5.9403E2	13.32337E0
5.9449E2	13.67222E0
5.9495E2	12.75206E0
5.954E2	12.95936E0
5.9586E2	13.7415E0
5.9631E2	13.60903E0
5.9677E2	13.5653E0
5.9722E2	13.29751E0
5.9768E2	13.41596E0
5.9814E2	13.50803E0
5.9859E2	13.94306E0
5.9905E2	13.54341E0
5.995E2	13.63753E0
5.9996E2	13.15738E0
6.0041E2	13.22833E0
6.0087E2	12.96269E0
6.0132E2	13.60654E0
6.0178E2	14.06536E0
6.0223E2	14.05891E0
6.0269E2	13.51045E0
6.0314E2	13.62168E0
6.036E2	13.72157E0
6.0406E2	13.30491E0
6.0451E2	14.12865E0
6.0497E2	13.68289E0
6.0542E2	13.61071E0
6.0588E2	13.79751E0
6.0633E2	14.02846E0
6.0679E2	13.80138E0
6.0724E2	13.63809E0
6.077E2	14.12211E0
6.0815E2	13.88297E0
6.0861E2	13.6885E0
6.0906E2	13.48132E0
6.0952E2	13.73078E0
6.0997E2	13.92505E0
6.1043E2	13.55626E0
6.1088E2	13.79246E0
6.1134E2	14.13036E0
6.1179E2	13.50279E0
6.1224E2	13.9835E0
6.127E2	13.79332E0
6.1315E2	13.6742E0
6.1361E2	13.79065E0
6.1406E2	13.87136E0
6.1452E2	13.33131E0
6.1497E2	13.53983E0
6.1543E2	14.08692E0
6.1588E2	13.59754E0
6.1634E2	13.44854E0
6.1679E2	13.83286E0
6.1725E2	13.84624E0
6.177E2	13.57504E0
6.1815E2	13.45521E0
6.1861E2	13.89603E0
6.1906E2	13.6699E0
6.1952E2	13.5215E0
6.1997E2	13.37257E0
6.2043E2	12.84077E0
6.2088E2	13.75694E0
6.2133E2	13.13288E0
6.2179E2	13.31077E0
6.2224E2	13.22148E0
6.227E2	13.37695E0
6.2315E2	13.18601E0
6.2361E2	13.36067E0
6.2406E2	13.39513E0
6.2451E2	13.612E0
6.2497E2	13.39122E0
6.2542E2	13.78482E0
6.2588E2	13.36787E0
6.2633E2	13.38446E0
6.2678E2	14.01478E0
6.2724E2	13.18223E0
6.2769E2	13.57096E0
6.2815E2	14.22567E0
6.286E2	13.29547E0
6.2905E2	13.77987E0
6.2951E2	13.53766E0
6.2996E2	14.01254E0
6.3041E2	14.21466E0
6.3087E2	14.07126E0
6.3132E2	13.56516E0
6.3178E2	13.28477E0
6.3223E2	13.04586E0
6.3268E2	13.79433E0
6.3314E2	13.42123E0
6.3359E2	13.42676E0
6.3404E2	13.8087E0
6.345E2	13.83733E0
6.3495E2	14.11731E0
6.354E2	13.97001E0
6.3586E2	13.45909E0
6.3631E2	13.18949E0
6.3676E2	13.30181E0
6.3722E2	13.67914E0
6.3767E2	13.22252E0
6.3812E2	13.34837E0
6.3858E2	13.27271E0
6.3903E2	12.8889E0
6.3948E2	13.42287E0
6.3994E2	13.09848E0
6.4039E2	12.16731E0
6.4084E2	12.41233E0
6.413E2	12.57111E0
6.4175E2	12.58943E0
6.422E2	12.03366E0
6.4266E2	12.73469E0
6.4311E2	12.46433E0
6.4356E2	12.48468E0
6.4401E2	12.01268E0
6.4447E2	12.25918E0
6.4492E2	12.02676E0
6.4537E2	12.06435E0
6.4583E2	11.63859E0
6.4628E2	11.44788E0
6.4673E2	11.56492E0
6.4718E2	11.70908E0
6.4764E2	11.43518E0
6.4809E2	11.03408E0
6.4854E2	11.32372E0
6.49E2	10.95606E0
6.4945E2	10.75184E0
6.499E2	11.54048E0
6.5035E2	11.06954E0
6.5081E2	10.83882E0
6.5126E2	10.36653E0
6.5171E2	10.34812E0
6.5216E2	9.834032E0
6.5262E2	10.32151E0
6.5307E2	10.86636E0
6.5352E2	10.02877E0
6.5397E2	10.66475E0
6.5443E2	10.42632E0
6.5488E2	10.40767E0
6.5533E2	11.23761E0
6.5578E2	11.02425E0
6.5624E2	11.12777E0
6.5669E2	11.21817E0
6.5714E2	10.70594E0
6.5759E2	9.9668E0
6.5804E2	10.29839E0
6.585E2	10.03949E0
6.5895E2	9.567727E0
6.594E2	10.25417E0
6.5985E2	9.641476E0
6.6031E2	9.850926E0
6.6076E2	9.665722E0
6.6121E2	10.23187E0
6.6166E2	9.192411E0
6.6211E2	9.05558E0
6.6257E2	9.836317E0
6.6302E2	9.51711E0
6.6347E2	9.098081E0
6.6392E2	9.601415E0
6.6437E2	9.298228E0
6.6482E2	8.406774E0
6.6528E2	9.23019E0
6.6573E2	9.474046E0
6.6618E2	9.373642E0
6.6663E2	8.800836E0
6.6708E2	8.027627E0
6.6753E2	8.745218E0
6.6799E2	8.330626E0
6.6844E2	8.394408E0
6.6889E2	8.852158E0
6.6934E2	8.875164E0
6.6979E2	8.251424E0
6.7024E2	8.436482E0
6.707E2	8.135517E0
6.7115E2	8.30001E0
6.716E2	8.859956E0
6.7205E2	8.367354E0
6.725E2	8.212239E0
6.7295E2	8.158989E0
6.734E2	8.603984E0
6.7386E2	8.514622E0
6.7431E2	8.119903E0
6.7476E2	8.119423E0
6.7521E2	8.842591E0
6.7566E2	8.593464E0
6.7611E2	8.041816E0
6.7656E2	8.95703E0
6.7701E2	8.497892E0
6.7746E2	9.04318E0
6.7792E2	8.796611E0
6.7837E2	8.995111E0
6.7882E2	9.01873E0
6.7927E2	8.78201E0
6.7972E2	8.998391E0
6.8017E2	9.172257E0
6.8062E2	9.205384E0
6.8107E2	9.37287E0
6.8152E2	9.618809E0
6.8197E2	9.620426E0
6.8243E2	9.871075E0
6.8288E2	10.05369E0
6.8333E2	9.761793E0
6.8378E2	10.50862E0
6.8423E2	10.49947E0
6.8468E2	10.3864E0
6.8513E2	10.79243E0
6.8558E2	10.78401E0
6.8603E2	10.91605E0
6.8648E2	12.6164E0
6.8693E2	13.02361E0
6.8738E2	11.93804E0
6.8783E2	12.46451E0
6.8828E2	12.53174E0
6.8873E2	14.4365E0
6.8918E2	14.387E0
6.8964E2	15.82265E0
6.9009E2	15.22387E0
6.9054E2	15.74664E0
6.9099E2	16.32767E0
6.9144E2	16.65689E0
6.9189E2	17.67338E0
6.9234E2	17.31258E0
6.9279E2	19.05226E0
6.9324E2	18.34094E0
6.9369E2	19.02927E0
6.9414E2	18.65933E0
6.9459E2	21.21133E0
6.9504E2	20.59695E0
6.9549E2	20.4847E0
6.9594E2	21.97456E0
6.9639E2	22.29029E0
6.9684E2	22.34859E0
6.9729E2	22.55818E0
6.9774E2	23.70025E0
6.9819E2	23.40329E0
6.9864E2	23.47907E0
6.9909E2	25.16028E0
6.9954E2	26.0556E0
6.9999E2	25.71833E0
7.0044E2	26.18092E0
7.0089E2	26.72847E0
7.0134E2	26.49511E0
7.0179E2	26.24107E0
7.0224E2	27.15093E0
7.0269E2	28.22157E0
7.0314E2	28.37431E0
7.0359E2	28.1981E0
7.0404E2	29.09627E0
7.0448E2	30.22305E0
7.0493E2	30.48542E0
7.0538E2	30.68116E0
7.0583E2	29.7997E0
7.0628E2	30.71388E0
7.0673E2	31.11452E0
7.0718E2	31.45423E0
7.0763E2	30.84386E0
7.0808E2	31.43126E0
7.0853E2	31.73965E0
7.0898E2	32.89266E0
7.0943E2	32.55805E0
7.0988E2	32.9256E0
7.1033E2	34.18331E0
7.1078E2	33.69238E0
7.1123E2	33.76454E0
7.1167E2	34.37506E0
7.1212E2	32.93622E0
7.1257E2	33.96348E0
7.1302E2	34.21369E0
7.1347E2	34.96299E0
7.1392E2	35.29573E0
7.1437E2	36.62844E0
7.1482E2	35.37483E0
7.1527E2	35.79041E0
7.1572E2	36.89121E0
7.1617E2	38.28494E0
7.1661E2	36.35475E0
7.1706E2	37.34944E0
7.1751E2	36.8923E0
7.1796E2	37.18454E0
7.1841E2	37.89091E0
7.1886E2	39.78278E0
7.1931E2	35.21121E0
7.1976E2	36.19157E0
7.202E2	36.97217E0
7.2065E2	37.70497E0
7.211E2	36.77142E0
7.2155E2	38.81471E0
7.22E2	39.63797E0
7.2245E2	36.5465E0
7.229E2	39.62051E0
7.2334E2	41.80652E0
7.2379E2	39.68606E0
7.2424E2	38.68356E0
7.2469E2	40.28044E0
7.2514E2	41.07074E0
7.2559E2	39.57701E0
7.2604E2	40.27889E0
7.2648E2	41.04304E0
7.2693E2	40.49675E0
7.2738E2	40.14849E0
7.2783E2	39.11585E0
7.2828E2	39.5633E0
7.2873E2	40.00135E0
7.2917E2	38.48183E0
7.2962E2	42.19188E0
7.3007E2	40.81349E0
7.3052E2	40.34415E0
7.3097E2	41.60721E0
7.3141E2	39.80192E0
7.3186E2	42.89736E0
7.3231E2	41.99774E0
7.3276E2	41.81624E0
7.3321E2	42.05274E0
7.3365E2	40.23826E0
7.341E2	43.03778E0
7.3455E2	43.02347E0
7.35E2	43.20535E0
7.3545E2	42.80044E0
7.3589E2	42.32037E0
7.3634E2	41.3999E0
7.3679E2	43.81693E0
7.3724E2	42.34163E0
7.3768E2	41.2435E0
7.3813E2	43.0225E0
7.3858E2	44.68722E0
7.3903E2	42.85602E0
7.3947E2	41.59984E0
7.3992E2	43.08366E0
7.4037E2	43.06387E0
7.4082E2	43.09929E0
7.4127E2	43.65922E0
7.4171E2	42.46064E0
7.4216E2	42.58802E0
7.4261E2	42.54492E0
7.4305E2	42.48646E0
7.435E2	43.16247E0
7.4395E2	42.5109E0
7.444E2	44.52767E0
7.4484E2	43.12304E0
7.4529E2	43.89015E0
7.4574E2	42.01345E0
7.4619E2	43.04467E0
7.4663E2	42.08597E0
7.4708E2	43.71089E0
7.4753E2	42.82747E0
7.4797E2	42.09443E0
7.4842E2	44.02048E0
7.4887E2	44.23259E0
7.4932E2	44.39082E0
7.4976E2	43.69714E0
7.5021E2	43.17776E0
7.5066E2	45.55893E0
7.511E2	43.36754E0
7.5155E2	43.61973E0
7.52E2	44.99082E0
7.5245E2	41.08809E0
7.5289E2	44.13933E0
7.5334E2	43.18897E0
7.5379E2	44.37481E0
7.5423E2	43.12025E0
7.5468E2	42.16042E0
7.5513E2	44.37315E0
7.5557E2	43.35281E0
7.5602E2	42.86857E0
7.5647E2	43.35101E0
7.5691E2	42.32067E0
7.5736E2	44.5069E0
7.5781E2	44.81086E0
7.5825E2	46.65235E0
7.587E2	46.43952E0
7.5915E2	46.19678E0
7.5959E2	46.92877E0
7.6004E2	42.07858E0
7.6048E2	46.60978E0
7.6093E2	46.17989E0
7.6138E2	45.06566E0
7.6182E2	44.21861E0
7.6227E2	42.22061E0
7.6272E2	42.85376E0
7.6316E2	42.14291E0
7.6361E2	44.89547E0
7.6406E2	43.34587E0
7.645E2	42.40339E0
7.6495E2	43.39632E0
7.6539E2	42.84471E0
7.6584E2	42.35416E0
7.6629E2	45.22254E0
7.6673E2	41.74946E0
7.6718E2	44.90246E0
7.6762E2	44.14586E0
7.6807E2	45.68351E0
7.6852E2	44.1741E0
7.6896E2	42.88702E0
7.6941E2	43.90522E0
7.6985E2	43.30648E0
7.703E2	42.87085E0
7.7075E2	42.60115E0
7.7119E2	45.12814E0
7.7164E2	44.77284E0
7.7208E2	44.3563E0
7.7253E2	44.34128E0
7.7297E2	44.69494E0
7.7342E2	44.47716E0
7.7387E2	42.67185E0
7.7431E2	44.65532E0
7.7476E2	44.55345E0
7.752E2	42.86363E0
7.7565E2	44.2921E0
7.7609E2	43.50935E0
7.7654E2	43.66437E0
7.7699E2	43.50508E0
7.7743E2	43.03202E0
7.7788E2	43.30512E0
7.7832E2	42.68436E0
7.7877E2	45.05051E0
7.7921E2	44.36429E0
7.7966E2	43.22723E0
7.801E2	44.57072E0
7.8055E2	44.71476E0
7.8099E2	44.48788E0
7.8144E2	41.41765E0
7.8188E2	44.63397E0
7.8233E2	43.37929E0
7.8277E2	41.26139E0
7.8322E2	46.92495E0
7.8367E2	44.45481E0
7.8411E2	42.01296E0
7.8456E2	43.65167E0
7.85E2	46.38913E0
7.8545E2	44.93374E0
7.8589E2	43.82467E0
7.8634E2	42.46717E0
7.8678E2	43.54472E0
7.8723E2	43.841E0
7.8767E2	43.8091E0
7.8812E2	45.17522E0
7.8856E2	43.61325E0
7.89E2	43.53604E0
7.8945E2	41.31926E0
7.8989E2	41.75284E0
7.9034E2	45.23641E0
7.9078E2	43.85495E0
7.9123E2	43.56583E0
7.9167E2	44.32815E0
7.9212E2	42.32953E0
7.9256E2	42.82243E0
7.9301E2	42.44128E0
7.9345E2	44.74805E0
7.939E2	43.40187E0
7.9434E2	47.36817E0
7.9479E2	41.2748E0
7.9523E2	44.01803E0
7.9567E2	46.33197E0
7.9612E2	41.85764E0
7.9656E2	42.43537E0
7.9701E2	43.77678E0
7.9745E2	43.87633E0
7.979E2	43.91043E0
7.9834E2	44.17418E0
7.9878E2	43.74104E0
7.9923E2	42.79444E0
7.9967E2	45.08183E0
8.0012E2	42.72912E0
8.0056E2	40.68652E0
8.0101E2	42.82987E0
8.0145E2	44.82818E0
8.0189E2	42.90657E0
8.0234E2	42.38776E0
8.0278E2	44.66365E0
8.0323E2	47.41405E0
8.0367E2	42.52484E0
8.0411E2	44.03897E0
8.0456E2	46.20384E0
8.05E2	41.85753E0
8.0545E2	44.28486E0
8.0589E2	42.58218E0
8.0633E2	46.06061E0
8.0678E2	42.73514E0
8.0722E2	42.15121E0
8.0767E2	44.62569E0
8.0811E2	42.20465E0
8.0855E2	40.91422E0
8.09E2	43.0512E0
8.0944E2	43.13397E0
8.0988E2	43.13004E0
8.1033E2	43.16886E0
8.1077E2	42.17235E0
8.1121E2	43.43017E0
8.1166E2	46.18761E0
8.121E2	43.7983E0
8.1255E2	44.48125E0
8.1299E2	42.8349E0
8.1343E2	40.63647E0
8.1388E2	39.11719E0
8.1432E2	42.8299E0
8.1476E2	40.23917E0
8.1521E2	42.03189E0
8.1565E2	39.05638E0
8.1609E2	41.99464E0
8.1654E2	42.29095E0
8.1698E2	44.07126E0
8.1742E2	39.17833E0
8.1787E2	42.58853E0
8.1831E2	41.90159E0
8.1875E2	40.2528E0
8.1919E2	43.35989E0
8.1964E2	41.13993E0
8.2008E2	39.88412E0
8.2052E2	41.67657E0
8.2097E2	47.55728E0
8.2141E2	36.03701E0
8.2185E2	42.98473E0
8.223E2	46.2862E0
8.2274E2	40.63588E0
8.2318E2	40.08748E0
8.2362E2	43.4125E0
8.2407E2	43.76186E0
8.2451E2	40.80676E0
8.2495E2	39.84536E0
8.254E2	46.47349E0
8.2584E2	45.25588E0
8.2628E2	43.89626E0
8.2672E2	43.80473E0
8.2717E2	44.18184E0
8.2761E2	40.1331E0
8.2805E2	43.45008E0
8.285E2	47.63199E0
8.2894E2	40.13419E0
8.2938E2	38.00654E0
8.2982E2	40.84436E0
8.3027E2	40.65625E0
8.3071E2	46.35801E0
8.3115E2	45.30647E0
8.3159E2	42.0074E0
8.3204E2	38.56391E0
8.3248E2	42.8529E0
8.3292E2	42.18522E0
8.3336E2	39.45372E0
8.338E2	41.65314E0
8.3425E2	40.21086E0
8.3469E2	42.75215E0
8.3513E2	43.49115E0
8.3557E2	45.49643E0
8.3602E2	46.11885E0
8.3646E2	43.35652E0
8.369E2	42.23559E0
8.3734E2	45.11923E0
8.3778E2	38.79982E0
8.3823E2	39.78595E0
8.3867E2	41.09469E0
8.3911E2	41.97896E0
8.3955E2	41.29575E0
8.3999E2	42.21387E0
8.4044E2	40.20334E0
8.4088E2	40.93598E0
8.4132E2	42.02744E0
8.4176E2	48.84113E0
8.422E2	40.11304E0
8.4265E2	40.0814E0
8.4309E2	42.31063E0
8.4353E2	41.53587E0
8.4397E2	40.36826E0
8.4441E2	43.79665E0
8.4485E2	44.03253E0
8.453E2	37.9676E0
8.4574E2	44.80027E0
8.4618E2	45.08062E0
8.4662E2	41.11954E0
8.4706E2	40.36067E0
8.475E2	43.10623E0
8.4795E2	42.87316E0
8.4839E2	38.16966E0
8.4883E2	41.07959E0
8.4927E2	45.45711E0
8.4971E2	42.05563E0
8.5015E2	41.31474E0
8.5059E2	41.18571E0
8.5104E2	39.36393E0
8.5148E2	43.45384E0
8.5192E2	42.18075E0
8.5236E2	42.56633E0
8.528E2	41.44127E0
8.5324E2	40.98215E0
8.5368E2	41.32669E0
8.5412E2	40.96536E0
8.5456E2	44.73071E0
8.5501E2	49.30708E0
8.5545E2	43.09595E0
8.5589E2	44.82334E0
8.5633E2	44.82854E0
8.5677E2	45.71541E0
8.5721E2	42.89974E0
8.5765E2	46.07311E0
8.5809E2	40.34293E0
8.5853E2	36.60541E0
8.5897E2	39.06173E0
8.5942E2	40.54729E0
8.5986E2	40.64306E0
8.603E2	39.94121E0
8.6074E2	41.39069E0
8.6118E2	42.72777E0
8.6162E2	45.83376E0
8.6206E2	43.04137E0
8.625E2	43.61735E0
8.6294E2	40.46326E0
8.6338E2	39.4581E0
8.6382E2	40.5774E0
8.6426E2	42.70037E0
8.647E2	37.93556E0
8.6514E2	39.18014E0
8.6559E2	43.1715E0
8.6603E2	40.92999E0
8.6647E2	41.68265E0
8.6691E2	40.7498E0
8.6735E2	37.5127E0
8.6779E2	41.738E0
8.6823E2	45.07872E0
8.6867E2	40.77692E0
8.6911E2	39.45594E0
8.6955E2	42.53881E0
8.6999E2	37.6961E0
8.7043E2	45.33494E0
8.7087E2	39.48015E0
8.7131E2	40.91896E0
8.7175E2	40.12308E0
8.7219E2	40.04379E0
8.7263E2	43.37817E0
8.7307E2	42.22355E0
8.7351E2	40.89318E0
8.7395E2	41.30865E0
8.7439E2	49.24272E0
8.7483E2	37.33996E0
8.7527E2	44.75558E0
8.7571E2	44.14499E0
8.7615E2	36.94613E0
8.7659E2	35.66408E0
8.7703E2	41.12994E0
8.7747E2	40.80949E0
8.7791E2	43.96472E0
8.7835E2	37.87316E0
8.7879E2	41.37931E0
8.7923E2	45.17477E0
8.7967E2	44.64547E0
8.8011E2	44.96398E0
8.8055E2	48.39536E0
8.8099E2	46.93414E0
8.8143E2	41.47426E0
8.8187E2	42.74576E0
8.8231E2	43.58621E0
8.8275E2	42.71956E0
8.8319E2	40.49029E0
8.8363E2	39.40915E0
8.8406E2	40.66953E0
8.845E2	43.73972E0
8.8494E2	41.9487E0
8.8538E2	45.04646E0
8.8582E2	47.59224E0
8.8626E2	49.82491E0
8.867E2	45.86702E0
8.8714E2	48.72311E0
8.8758E2	48.49091E0
8.8802E2	43.84843E0
8.8846E2	36.64717E0
8.889E2	41.39643E0
8.8934E2	40.41902E0
8.8978E2	45.36082E0
8.9021E2	48.16418E0
8.9065E2	39.847E0
8.9109E2	39.94997E0
8.9153E2	38.26412E0
8.9197E2	46.17205E0
8.9241E2	47.35225E0
8.9285E2	43.45362E0
8.9329E2	47.18972E0
8.9373E2	47.1088E0
8.9417E2	42.06468E0
8.946E2	47.52383E0
8.9504E2	34.86561E0
8.9548E2	38.12334E0
8.9592E2	47.6754E0
8.9636E2	40.43464E0
8.968E2	45.78579E0
8.9724E2	39.91017E0
8.9768E2	40.79413E0
8.9811E2	49.03037E0
8.9855E2	24.37276E0
8.9899E2	44.79204E0
8.9943E2	58.46027E0
8.9987E2	44.47987E0
9.0031E2	49.89842E0
9.0075E2	53.73134E0
9.0118E2	58.23555E0
9.0162E2	34.19425E0
9.0206E2	39.03434E0
9.025E2	47.69776E0
9.0294E2	48.04282E0
9.0338E2	44.7212E0
9.0382E2	49.72288E0
9.0425E2	40.72931E0
9.0469E2	48.12861E0
9.0513E2	38.51852E0
9.0557E2	43.46004E0
9.0601E2	42.64317E0
9.0644E2	45.08104E0
9.0688E2	37.01386E0
9.0732E2	32.94984E0
9.0776E2	35.53611E0
9.082E2	50.5632E0
9.0864E2	55.62327E0
9.0907E2	40.02052E0
9.0951E2	61.21517E0
9.0995E2	51.61999E0
9.1039E2	36.57702E0
9.1083E2	38.13524E0
9.1126E2	51.73598E0
9.117E2	41.66337E0
9.1214E2	27.26186E0
9.1258E2	46.24948E0
9.1302E2	40.50891E0
9.1345E2	43.48321E0
9.1389E2	40.29147E0
9.1433E2	62.94416E0
9.1477E2	46.51163E0
9.152E2	49.49833E0
9.1564E2	67.45629E0
9.1608E2	19.98735E0
9.1652E2	37.37505E0
9.1695E2	48.62907E0
9.1739E2	37.32691E0
9.1783E2	13.55543E0
9.1827E2	54.44201E0
9.187E2	72.55217E0
9.1914E2	46.19908E0
9.1958E2	36.05514E0
9.2002E2	39.0206E0
9.2045E2	49.53395E0
9.2089E2	45.96132E0
9.2133E2	37.79141E0
9.2177E2	49.59192E0
9.222E2	32.13406E0
9.2264E2	33.02481E0
9.2308E2	29.92941E0
9.2352E2	36.71733E0
9.2395E2	53.50028E0
9.2439E2	47.74251E0
9.2483E2	51.74247E0
9.2526E2	41.22353E0
9.257E2	46.24948E0
9.2614E2	46.759E0
9.2658E2	54.06671E0
9.2701E2	60.96033E0
9.2745E2	42.65474E0
9.2789E2	52.83019E0
9.2832E2	48.62043E0
9.2876E2	52.45154E0
9.292E2	46.74047E0
9.2963E2	45.90164E0
9.3007E2	55.32338E0
9.3051E2	75.26627E0
9.3095E2	-19.58042E0
9.3138E2	30.64833E0
9.3182E2	1.451104E2
9.3226E2	33.9726E0
9.3269E2	21.43951E0
9.3313E2	1.652997E2
9.3357E2	-8.210526E2
9.34E2	96.55172E0
9.3444E2	76.31027E0
9.3488E2	31.74603E0
9.3531E2	1.108772E2
9.3575E2	75.93423E0
9.3619E2	39.00826E0
9.3662E2	42.78438E0
9.3706E2	50.98743E0
9.3749E2	72.63923E0
9.3793E2	37.1831E0
9.3837E2	-1.965318E2
9.388E2	30.0112E0
9.3924E2	49.47589E0
9.3968E2	-11.38462E2
9.4011E2	60.85193E0
9.4055E2	79.66457E0
9.4099E2	23.97476E0
9.4142E2	-25.53191E0
9.4186E2	1.501754E2
9.4229E2	-14.66667E2
9.4273E2	19.9095E0
9.4317E2	1.079365E2
9.436E2	1.849462E2
9.4404E2	-1.922078E2
9.4447E2	57.52066E0
9.4491E2	1.078086E2
9.4535E2	96.55172E0
9.4578E2	-3.737705E2
9.4622E2	45.29332E0
9.4665E2	70.58824E0
9.4709E2	-32.10412E0
9.4753E2	22.82282E0
9.4796E2	-1.490196E2
9.484E2	-4E2
9.4883E2	43.90832E0
9.4927E2	73.08229E0
9.4971E2	12E2
9.5014E2	26.89805E0
9.5058E2	16.53905E0
9.5101E2	35.8804E0
9.5145E2	18.40194E0
9.5188E2	28.90443E0
9.5232E2	60.73298E0
9.5275E2	13.01518E0
9.5319E2	59.27904E0
9.5363E2	99.4709E0
9.5406E2	-92.92929E0
9.545E2	53.03371E0
9.5493E2	37.64115E0
9.5537E2	86.4E0
9.558E2	-28.6533E0
9.5624E2	-8.595041E0
9.5667E2	76.79083E0
9.5711E2	56.62921E0
9.5754E2	74.07407E0
9.5798E2	-3.809524E0
9.5842E2	-89.88764E-2
9.5885E2	13.65854E0
9.5929E2	29.71429E0
9.5972E2	68.54664E0
9.6016E2	17.68902E0
9.6059E2	73.77666E0
9.6103E2	82.40109E0
9.6146E2	34.0694E0
9.619E2	-25.16269E0
9.6233E2	57.81022E0
9.6277E2	-23.85965E0
9.632E2	40.66543E0
9.6364E2	51.62847E0
9.6407E2	61.66008E0
9.6451E2	-26.87747E0
9.6494E2	52.98281E0
9.6538E2	1.650558E2
9.6581E2	41.37931E0
9.6625E2	16.51706E0
9.6668E2	44.07252E0
9.6712E2	50.70423E0
9.6755E2	47.52105E0
9.6798E2	42.23176E0
9.6842E2	48.18805E0
9.6885E2	58.09822E0
9.6929E2	60.92254E0
9.6972E2	49.76959E0
9.7016E2	66.34461E0
9.7059E2	1.932367E0
9.7103E2	41.42733E0
9.7146E2	69.97194E0
9.719E2	1.88383E0
9.7233E2	27.96353E0
9.7277E2	26.22036E0
9.732E2	59.74914E0
9.7363E2	45.73269E0
9.7407E2	72.4679E0
9.745E2	52.99861E0
9.7494E2	12.05479E0
9.7537E2	55.89041E0
9.7581E2	1.242784E2
9.7624E2	-8.391608E0
9.7667E2	21.05263E0
9.7711E2	91.9403E0
9.7754E2	9.934641E0
9.7798E2	28.45188E0
9.7841E2	73.96768E0
9.7885E2	55.00668E0
9.7928E2	34.75046E0
9.7971E2	48.95522E0
9.8015E2	48.92086E0
9.8058E2	-6.654344E0
9.8102E2	51.08434E0
9.8145E2	60.09217E0
9.8188E2	50.67651E0
9.8232E2	50.62714E0
9.8275E2	55.20745E0
9.8318E2	68.20682E0
9.8362E2	50.4721E0
9.8405E2	64.95726E0
9.8449E2	81.32231E0
9.8492E2	67.2326E0
9.8535E2	40.85837E0
9.8579E2	45.58491E0
9.8622E2	13.28413E0
9.8665E2	41.80418E0
9.8709E2	34.88569E0
9.8752E2	61.07179E0
9.8796E2	-5.255474E0
9.8839E2	32.07373E0
9.8882E2	43.32953E0
9.8926E2	31.1266E0
9.8969E2	26.66667E0
9.9012E2	46.60691E0
9.9056E2	59.65463E0
9.9099E2	-43.24324E-2
9.9142E2	39.12738E0
9.9186E2	90.04594E0
9.9229E2	46.60691E0
9.9272E2	34.5679E0
9.9316E2	59.78785E0
9.9359E2	42.81581E0
9.9402E2	47.5817E0
9.9446E2	51.08434E0
9.9489E2	38.41229E0
9.9532E2	15.06276E0
9.9576E2	28.49003E0
9.9619E2	69.95995E0
9.9662E2	43.1105E0
9.9706E2	39.72999E0
9.9749E2	65.04481E0
9.9792E2	35.80952E0
9.9835E2	71.82482E0
9.9879E2	33.07224E0
9.9922E2	60.16529E0
9.9965E2	23.46521E0
10.001E2	61.27865E0
10.005E2	99.85735E0
10.01E2	68.36935E0
10.014E2	72.21764E0
10.018E2	44.3449E0
10.023E2	63.97608E0
10.027E2	23.31839E0
10.031E2	57.14286E0
10.035E2	1.632E2
10.04E2	71.90227E0
10.044E2	67.46544E0
10.048E2	36.52365E0
10.053E2	21.90669E0
10.057E2	11.09489E0
10.061E2	61.98137E0
10.066E2	77.33675E0
10.07E2	32.91492E0
10.074E2	35.65132E0
10.079E2	84.2615E0
10.083E2	87.22986E0
10.087E2	45.99303E0
10.092E2	30.94556E0
10.096E2	85.90022E0
10.1E2	42.61415E0
10.105E2	75.23124E0
10.109E2	94.89489E0
10.113E2	29.51334E0
10.118E2	52.98281E0
10.122E2	76.48903E0
10.126E2	53.26877E0
10.131E2	26.538E0
10.135E2	1.654795E2
10.139E2	68.54664E0
10.144E2	4.395604E0
10.148E2	46.58041E0
10.152E2	3.272727E2
10.157E2	-31.96126E0
10.161E2	38.2311E0
10.165E2	73.83367E0
10.17E2	9.6E0
10.174E2	9.661836E0
10.178E2	29.3725E0
10.182E2	2.165854E2
10.187E2	-23.52941E0
10.191E2	49.68632E0
10.195E2	1.260274E2
10.2E2	12.66968E0
10.204E2	40.05979E0
10.208E2	-4.662005E0
10.213E2	-23.52941E0
10.217E2	38.35616E0
10.221E2	67.62178E0
10.226E2	12.66968E0
10.23E2	20.82192E0
10.234E2	32.19645E0
10.239E2	-73.55164E0
10.243E2	-46.6877E0
10.247E2	56.42633E0
10.252E2	1.221445E2
10.256E2	79.59698E0
10.26E2	57.71644E0
10.264E2	21.97802E0
10.269E2	-23.85965E0
10.273E2	-33.22259E0
10.277E2	23.61905E0
10.282E2	81.32231E0
10.286E2	-17.56098E0
10.29E2	65.35009E0
10.295E2	93.6803E0
10.299E2	60.35088E0
10.303E2	71.09515E0
10.308E2	26.66667E0
10.312E2	67.77409E0
10.316E2	44.16404E0
10.321E2	29.20204E0
10.325E2	1.108772E2
10.329E2	2.736842E2
10.333E2	57.52066E0
10.338E2	-12.73885E0
10.342E2	-19.04762E0
10.346E2	56.49073E0
10.351E2	13.82843E0
10.355E2	1.12E2
10.359E2	79.11275E0
10.364E2	52.65226E0
10.368E2	99.4709E0
10.372E2	-36.87943E0
10.377E2	59.44584E0
10.381E2	64.32532E0
10.385E2	36.36364E0
10.389E2	-2.42623E2
10.394E2	-13.64829E0
10.398E2	-13.26316E2
10.402E2	2.678261E2
10.407E2	-92.92929E0
10.411E2	2.88172E2
10.415E2	6.292135E0
10.42E2	-96.8523E-2
10.424E2	9.6E0
10.428E2	-1.22905E2
10.433E2	92.30769E0
10.437E2	43.79562E0
10.441E2	2.912E2
10.445E2	73.42466E0
10.45E2	-9.448819E0
10.454E2	-67.2E0
10.458E2	84.54259E0
10.463E2	5.853659E0
10.467E2	3.822222E2
10.471E2	-28.28283E0
10.476E2	48.39204E0
10.48E2	17.07865E0
10.484E2	-5.687204E0
10.488E2	-1.419355E2
10.493E2	-1.328904E0
10.497E2	1.501577E2
10.501E2	77.82805E0
10.506E2	1.333333E2
10.51E2	56.62921E0
10.514E2	-2.80597E2
10.519E2	-14.22925E0
10.523E2	53.26877E0
10.527E2	2.381503E2
10.531E2	9.473684E2
10.536E2	99.4709E0
10.54E2	91.70732E0
10.544E2	42.55319E0
10.549E2	92.891E0
10.553E2	91.70732E0
10.557E2	3.913978E2
10.562E2	12E2
10.566E2	26.66667E0
10.57E2	55.33597E0
10.574E2	-2.344828E2
10.579E2	19.67213E0
10.583E2	32.80977E0
10.587E2	1.677419E2
10.592E2	-91.74312E0
10.596E2	-20.55336E0
10.6E2	81.72043E0
10.605E2	89.17197E0
10.609E2	44.58399E0
10.613E2	76.59574E0
10.617E2	70.34121E0
10.622E2	11.81435E0
10.626E2	11.42857E0
10.63E2	-1.879518E2
10.635E2	-93.24009E-2
10.639E2	2.12766E2
10.643E2	1.605096E2
10.647E2	7.789474E2
10.652E2	27.20403E0
10.656E2	1.501433E2
10.66E2	99.62825E0
10.665E2	1.888E2
10.669E2	52.32068E0
10.673E2	1.385366E2
10.677E2	1.970149E2
10.682E2	1.456647E2
10.686E2	1.229268E2
10.69E2	46.09665E0
10.695E2	34.68208E0
10.699E2	1.508197E2
10.703E2	-7.361963E0
10.708E2	-2.091743E2
10.712E2	-2.344828E2
10.716E2	2.62069E2
10.72E2	90.40248E0
10.725E2	44.16404E0
10.729E2	1.942857E2
10.733E2	2.746988E2
10.738E2	-2.312139E0
10.742E2	44.16404E0
10.746E2	-54.4E0
10.75E2	81.72043E0
10.755E2	-1.034146E2
10.759E2	-1.056E2
10.763E2	21.26316E2
10.768E2	44.62475E0
10.772E2	19.38462E2
10.776E2	-1.357798E2
10.78E2	90.09009E0
10.785E2	1.285285E2
10.789E2	-3.191919E2
10.793E2	13.23077E2
10.798E2	93.28063E0
10.802E2	1.557895E2
10.806E2	1.39759E2
10.81E2	1.318052E2
10.815E2	2.068966E2
10.819E2	41.19601E0
10.823E2	16.43836E0
10.828E2	53.26877E0
10.832E2	-1.876777E2
10.836E2	-16E0
10.84E2	-38.00905E0
10.845E2	-1.679389E2
10.849E2	26.66667E0
10.853E2	58.13449E0
10.857E2	-39.52569E0
10.862E2	-20.2946E0
10.866E2	-2.116402E0
10.87E2	-72.19512E0
10.875E2	1.307317E2
10.879E2	1.087179E2
10.883E2	1.21267E2
10.887E2	1.502262E2
10.892E2	2.588235E2
10.896E2	-8.888889E0
10.9E2	76.59574E0
10.905E2	1.756614E2
10.909E2	72.13115E0
10.913E2	1.141573E2
10.917E2	-4.716418E2
10.922E2	-12.27586E2
10.926E2	-14.1844E0
10.93E2	-93.61702E0
10.934E2	2.016E2
10.939E2	65.82278E0
10.943E2	18.01802E0
10.947E2	69.72477E0
10.952E2	-18.34862E0
10.956E2	59.07173E0
10.96E2	1.730659E2
10.964E2	-1.639344E2
10.969E2	45.90164E0
10.973E2	19.14358E0
10.977E2	1.614035E2
10.981E2	9.6E0
10.986E2	-1.503546E2
10.99E2	-1.496599E2
10.994E2	57.99257E0
10.999E2	-57.33333E2
11.003E2	5.142857E2
11.007E2	64.51613E0
11.011E2	3.741935E2
11.016E2	1.502262E2
11.02E2	-47.87645E0
11.024E2	1.417989E2
11.028E2	71.15097E0
11.033E2	6.754098E2
11.037E2	72.13115E0
11.041E2	-44.44444E0
11.046E2	12E2
11.05E2	-26.99387E0
11.054E2	-6.557377E0
11.058E2	48.40764E0
11.063E2	45.14436E0
11.067E2	84.40367E0
11.071E2	56.18449E0
11.075E2	-1.801527E2
11.08E2	1.39759E2
11.084E2	-5.777778E2
11.088E2	2.272E2
11.093E2	-13.7931E0
11.097E2	91.70732E0
11.101E2	70.34121E0
