节点9U_Reflection__1__16-02-36-459.txt的数据

Date: Fri Aug 26 16:02:36 CST 2022
User: user
Spectrometer: HR+C2006
触发模式: 0
积分时间 (秒): 5.000000E-3
Scans to average: 1
启用暗噪声校正: true
启用非线性校正: false
滑动平均宽度: 0
X轴模式: Wavelengths
Number of Pixels in Spectrum: 2048
>>>>>Begin Spectral Data<<<<<
1.8442E2	1.206897E2
1.849E2	1.206897E2
1.8537E2	1.206897E2
1.8585E2	-2.454545E2
1.8633E2	1.202899E2
1.8681E2	1.059406E2
1.8729E2	1.666667E2
1.8777E2	1.482759E2
1.8824E2	1.698795E2
1.8872E2	2.471698E2
1.892E2	1.526316E2
1.8968E2	2.364486E2
1.9016E2	1.980392E2
1.9064E2	-1.592593E2
1.9111E2	49.8008E0
1.9159E2	1.285714E2
1.9207E2	93.10345E0
1.9255E2	35.75758E0
1.9303E2	80.45113E0
1.935E2	95.30516E0
1.9398E2	10.07692E2
1.9446E2	-11.11111E0
1.9494E2	-4.636364E2
1.9542E2	1.046512E2
1.9589E2	4.925926E2
1.9637E2	-1.216216E2
1.9685E2	14.28571E0
1.9733E2	-1.372093E2
1.9781E2	-41E2
1.9828E2	-3.37037E2
1.9876E2	92E0
1.9924E2	92.64214E0
1.9972E2	85.85859E0
2.0019E2	-68.62745E0
2.0067E2	53.04348E0
2.0115E2	45.45455E0
2.0163E2	45.45455E0
2.021E2	22.35294E0
2.0258E2	16.23932E0
2.0306E2	-54.28571E0
2.0354E2	54.83871E0
2.0401E2	89.09091E0
2.0449E2	19.40299E0
2.0497E2	48.83721E0
2.0545E2	2.047619E2
2.0592E2	1.116402E2
2.064E2	60E0
2.0688E2	-43.43434E0
2.0736E2	2.534884E2
2.0783E2	23.48993E0
2.0831E2	-1.615385E2
2.0879E2	84.61538E0
2.0926E2	2.459459E2
2.0974E2	5.494505E0
2.1022E2	58.28877E0
2.107E2	1.624E2
2.1117E2	23E2
2.1165E2	35.38462E0
2.1213E2	1.895706E2
2.126E2	-27.66667E2
2.1308E2	-64.1791E0
2.1356E2	-41.46341E0
2.1403E2	-1.457143E2
2.1451E2	-1.213333E2
2.1499E2	2.459459E2
2.1546E2	60E0
2.1594E2	39.13043E0
2.1642E2	4.347826E0
2.1689E2	-21.8E2
2.1737E2	2.147541E2
2.1785E2	-25.5814E0
2.1832E2	2.093333E2
2.188E2	-4.636364E2
2.1928E2	1.358382E2
2.1975E2	56.86275E0
2.2023E2	8.846154E2
2.2071E2	6.951872E0
2.2118E2	84.61538E0
2.2166E2	-1.648649E2
2.2214E2	1.105263E2
2.2261E2	-2.439024E0
2.2309E2	15.22634E0
2.2357E2	-2.488372E2
2.2404E2	15.66265E0
2.2452E2	46.93878E0
2.2499E2	-8.196721E0
2.2547E2	-1.470588E2
2.2595E2	-1.385542E2
2.2642E2	83.27273E0
2.269E2	25.13966E0
2.2738E2	1.989011E2
2.2785E2	36.33333E2
2.2833E2	4.052632E2
2.288E2	50.58824E0
2.2928E2	94.78261E0
2.2976E2	1.502203E2
2.3023E2	95.78059E0
2.3071E2	-3.232558E2
2.3118E2	-4.428571E2
2.3166E2	2.692308E2
2.3214E2	-1E2
2.3261E2	-17E2
2.3309E2	-10.28037E0
2.3356E2	27.53623E0
2.3404E2	1.133333E2
2.3451E2	-40.18692E0
2.3499E2	-4.2E2
2.3547E2	72.54902E0
2.3594E2	-1E2
2.3642E2	-44.18605E0
2.3689E2	86.24339E0
2.3737E2	8.474576E0
2.3784E2	-1.888889E2
2.3832E2	-57.89474E0
2.388E2	-38.46154E0
2.3927E2	-23.80952E0
2.3975E2	-86.44068E0
2.4022E2	5.857143E2
2.407E2	2.162791E2
2.4117E2	44.57831E0
2.4165E2	51.35135E0
2.4212E2	-30.43478E0
2.426E2	-1.432432E2
2.4307E2	1.216867E2
2.4355E2	96.72131E0
2.4402E2	2.657143E2
2.445E2	-75.75758E0
2.4497E2	-3.033898E2
2.4545E2	1.169492E2
2.4592E2	48.83721E0
2.464E2	92.9078E0
2.4688E2	2.803279E2
2.4735E2	10.56911E0
2.4783E2	21.21212E0
2.483E2	1.909091E2
2.4878E2	-14.72081E0
2.4925E2	49.66667E2
2.4972E2	2.278689E2
2.502E2	-2.777778E2
2.5067E2	34.2E2
2.5115E2	-1.949153E2
2.5162E2	-3.285714E2
2.521E2	3.465116E2
2.5257E2	30.0813E0
2.5305E2	-2.674419E2
2.5352E2	77.09924E0
2.54E2	11.8E2
2.5447E2	3.057971E2
2.5495E2	96.31902E0
2.5542E2	-70.37037E0
2.559E2	32.17391E0
2.5637E2	-6.473684E2
2.5685E2	1.986667E2
2.5732E2	1.313253E2
2.5779E2	58.77863E0
2.5827E2	78.77095E0
2.5874E2	-9.565217E0
2.5922E2	1.029268E2
2.5969E2	75.60976E0
2.6017E2	70.66667E0
2.6064E2	72.8E0
2.6111E2	76.68712E0
2.6159E2	3.093023E2
2.6206E2	-4.477612E0
2.6254E2	1.268657E2
2.6301E2	2.733333E2
2.6349E2	47.2E0
2.6396E2	2.130435E2
2.6443E2	1.145251E2
2.6491E2	4.333333E2
2.6538E2	2.294118E2
2.6586E2	8.230769E2
2.6633E2	1.506024E2
2.668E2	-19.26606E0
2.6728E2	32.11009E0
2.6775E2	30.0813E0
2.6823E2	-17.75701E0
2.687E2	23E2
2.6917E2	1.505051E2
2.6965E2	26.31579E0
2.7012E2	-54.33333E2
2.706E2	-71.08434E0
2.7107E2	92.17877E0
2.7154E2	1.971429E2
2.7202E2	-41E2
2.7249E2	37.42331E0
2.7296E2	54.21687E0
2.7344E2	-42.16867E0
2.7391E2	83.20611E0
2.7438E2	4.333333E2
2.7486E2	-17.41935E0
2.7533E2	42.22222E0
2.758E2	29.03226E0
2.7628E2	1.495413E2
2.7675E2	-7.545455E2
2.7722E2	-52.23881E0
2.777E2	62.71186E0
2.7817E2	58.86525E0
2.7864E2	6.238095E2
2.7912E2	1.666667E2
2.7959E2	4.473684E2
2.8006E2	1.051282E2
2.8054E2	1.758621E2
2.8101E2	-52.23881E0
2.8148E2	46.93878E0
2.8196E2	-61.90476E0
2.8243E2	-4.636364E2
2.829E2	39.44954E0
2.8338E2	-14.66667E0
2.8385E2	31.86813E0
2.8432E2	3.571429E2
2.848E2	-62.61682E0
2.8527E2	85.78199E0
2.8574E2	1.418605E2
2.8621E2	-1.457143E2
2.8669E2	-3.030303E0
2.8716E2	1.604651E2
2.8763E2	2.377778E2
2.8811E2	2.027027E2
2.8858E2	-22.33333E2
2.8905E2	1.099291E2
2.8952E2	1.37037E2
2.9E2	83.74558E0
2.9047E2	92.17877E0
2.9094E2	1.541176E2
2.9141E2	60E0
2.9189E2	49.15254E0
2.9236E2	1.026667E2
2.9283E2	2.789474E2
2.933E2	19.14894E0
2.9378E2	-90.36145E0
2.9425E2	-2.142857E2
2.9472E2	-1.842105E2
2.9519E2	-1.542373E2
2.9567E2	77.77778E0
2.9614E2	-61.90476E0
2.9661E2	1.378378E2
2.9708E2	1.729412E2
2.9756E2	-2.777778E2
2.9803E2	49.45055E0
2.985E2	-1.385542E2
2.9897E2	2.011765E2
2.9944E2	51.44033E0
2.9992E2	56.86275E0
3.0039E2	5.4E2
3.0086E2	78.41727E0
3.0133E2	30.61224E0
3.0181E2	8.846154E2
3.0228E2	2.44086E2
3.0275E2	-70.09346E0
3.0322E2	83.60656E0
3.0369E2	-3.074074E2
3.0416E2	2.793296E0
3.0464E2	2.348837E2
3.0511E2	-22.33333E2
3.0558E2	11.30769E2
3.0605E2	1.612245E2
3.0652E2	80.64516E0
3.07E2	1.162162E2
3.0747E2	38.99614E0
3.0794E2	1.105263E2
3.0841E2	-1.296296E2
3.0888E2	-67.47967E0
3.0935E2	63.26531E0
3.0983E2	44.85597E0
3.103E2	35.67251E0
3.1077E2	-12.36749E0
3.1124E2	-50.92025E0
3.1171E2	-68E0
3.1218E2	-51.02041E0
3.1265E2	-63.87097E0
3.1313E2	-2.254902E2
3.136E2	-52.94118E0
3.1407E2	82.77154E0
3.1454E2	-6.333333E2
3.1501E2	-57.21925E0
3.1548E2	5.426357E0
3.1595E2	1.020202E2
3.1643E2	-4.38247E0
3.169E2	24.06417E0
3.1737E2	-1.840491E0
3.1784E2	-14.4385E0
3.1831E2	44.22535E0
3.1878E2	57.0997E0
3.1925E2	7.636364E0
3.1972E2	-5.21327E0
3.2019E2	12.88344E0
3.2066E2	-1.935484E0
3.2114E2	52.38095E0
3.2161E2	32.15339E0
3.2208E2	-29.2517E0
3.2255E2	-1.746667E2
3.2302E2	-1.646465E2
3.2349E2	5.540897E0
3.2396E2	-46.48829E0
3.2443E2	-7.625272E0
3.249E2	25.73402E0
3.2537E2	13.28976E0
3.2584E2	4.421053E0
3.2631E2	7.992895E0
3.2679E2	-71.59905E-2
3.2726E2	-13.08204E0
3.2773E2	-29.26316E0
3.282E2	13.48511E0
3.2867E2	5.225225E0
3.2914E2	38.92909E0
3.2961E2	21.62516E0
3.3008E2	-67.72009E-2
3.3055E2	-17.31266E0
3.3102E2	-51.10733E-2
3.3149E2	60.83009E0
3.3196E2	-13.56322E0
3.3243E2	4.809287E0
3.329E2	25.34562E0
3.3337E2	8.203991E0
3.3384E2	-12.63383E0
3.3431E2	-13.23764E0
3.3478E2	2.073365E0
3.3525E2	11.98102E0
3.3572E2	6.08931E0
3.3619E2	33.12597E0
3.3666E2	34.45378E0
3.3713E2	-6.903353E0
3.376E2	24.26187E0
3.3807E2	69.15629E-2
3.3854E2	-16.64075E0
3.3901E2	13.90434E0
3.3948E2	6.734435E0
3.3995E2	5.754277E0
3.4042E2	-16.95502E0
3.4089E2	12.89967E0
3.4136E2	9.422492E0
3.4183E2	-13.64318E0
3.423E2	9.714286E0
3.4277E2	-5.149701E0
3.4324E2	2.752294E0
3.4371E2	14.88616E0
3.4418E2	24.77064E0
3.4465E2	10.91142E0
3.4512E2	1.472254E0
3.4559E2	-4.31566E0
3.4606E2	11.41361E0
3.4653E2	-1.071081E0
3.47E2	13.02289E0
3.4747E2	19.83264E0
3.4794E2	-14.18685E0
3.4841E2	-15.39365E0
3.4888E2	18.57018E0
3.4935E2	10.96532E0
3.4982E2	-11.34199E0
3.5028E2	2.246321E0
3.5075E2	1.218369E0
3.5122E2	4.754482E0
3.5169E2	14.02014E0
3.5216E2	44.84305E-2
3.5263E2	-10.79895E0
3.531E2	-2.996516E0
3.5357E2	16.52057E0
3.5404E2	5.192178E0
3.5451E2	7.836991E0
3.5498E2	12.82778E0
3.5545E2	8.383635E0
3.5591E2	-2.677888E0
3.5638E2	-23.09469E-2
3.5685E2	-6.052394E0
3.5732E2	-8.186687E0
3.5779E2	5.122494E0
3.5826E2	5.8924E0
3.5873E2	-5.189775E0
3.592E2	5.164319E0
3.5967E2	9.879518E0
3.6013E2	68.74669E-2
3.606E2	3.171247E0
3.6107E2	-1.643335E0
3.6154E2	18.18779E0
3.6201E2	-2.755267E0
3.6248E2	4.347826E0
3.6295E2	11.97575E0
3.6342E2	-58.91805E-2
3.6388E2	-1.039956E0
3.6435E2	7.684777E0
3.6482E2	1.403E0
3.6529E2	-12.20008E-2
3.6576E2	3.076366E0
3.6623E2	11.85047E0
3.667E2	1.692366E0
3.6716E2	-3.05002E0
3.6763E2	8.434622E0
3.681E2	4.885177E0
3.6857E2	-2.60599E0
3.6904E2	3.844797E0
3.6951E2	1.582835E0
3.6997E2	2.786826E0
3.7044E2	4.758279E0
3.7091E2	4.961705E0
3.7138E2	46.64514E-2
3.7185E2	8.157794E0
3.7231E2	3.856434E0
3.7278E2	5.305146E0
3.7325E2	7.709665E0
3.7372E2	6.581572E0
3.7419E2	3.928433E0
3.7465E2	-11.92843E-2
3.7512E2	-95.77864E-2
3.7559E2	6.110283E0
3.7606E2	2.020537E0
3.7653E2	-9.413241E-2
3.7699E2	3.993567E0
3.7746E2	3.489898E0
3.7793E2	3.793187E0
3.784E2	3.433163E0
3.7887E2	11.33244E0
3.7933E2	4.095266E0
3.798E2	1.121552E0
3.8027E2	10.81984E0
3.8074E2	9.24753E0
3.812E2	3.50828E0
3.8167E2	8.49954E0
3.8214E2	8.042077E0
3.8261E2	-75.06914E-2
3.8307E2	-47.02864E-2
3.8354E2	6.666667E0
3.8401E2	6.882591E0
3.8448E2	4.002271E0
3.8494E2	4.171934E0
3.8541E2	1.092412E0
3.8588E2	59.47324E-2
3.8635E2	3.309281E0
3.8681E2	3.154176E0
3.8728E2	3.176758E0
3.8775E2	2.369668E0
3.8822E2	6.339854E0
3.8868E2	-2.073445E0
3.8915E2	4.692664E0
3.8962E2	5.21687E0
3.9008E2	2.790785E0
3.9055E2	3.545301E0
3.9102E2	-5.463486E-2
3.9149E2	6.31903E0
3.9195E2	1.237072E0
3.9242E2	3.367566E0
3.9289E2	4.140444E0
3.9335E2	4.013722E0
3.9382E2	2.896625E0
3.9429E2	5.508908E0
3.9475E2	3.281958E0
3.9522E2	3.59525E0
3.9569E2	5.274527E0
3.9615E2	5.982122E0
3.9662E2	7.058515E0
3.9709E2	87.69851E-2
3.9755E2	5.406824E0
3.9802E2	3.867721E0
3.9849E2	3.713355E0
3.9895E2	2.32902E0
3.9942E2	2.662971E0
3.9989E2	2.213374E0
4.0035E2	3.972405E0
4.0082E2	2.860901E0
4.0129E2	2.143679E0
4.0175E2	4.668975E0
4.0222E2	5.59576E0
4.0269E2	4.936289E0
4.0315E2	5.109489E0
4.0362E2	4.554293E0
4.0409E2	4.315119E0
4.0455E2	1.785135E0
4.0502E2	4.727902E0
4.0548E2	4.519592E0
4.0595E2	3.97358E0
4.0642E2	1.783591E0
4.0688E2	5.507359E0
4.0735E2	3.711074E0
4.0782E2	2.934194E0
4.0828E2	5.555045E0
4.0875E2	4.132676E0
4.0921E2	3.563745E0
4.0968E2	1.322826E0
4.1015E2	4.935561E0
4.1061E2	4.451467E0
4.1108E2	2.576073E0
4.1154E2	3.810186E0
4.1201E2	4.103846E0
4.1248E2	4.331361E0
4.1294E2	4.305043E0
4.1341E2	3.930626E0
4.1387E2	3.376092E0
4.1434E2	4.303417E0
4.1481E2	4.758208E0
4.1527E2	3.292951E0
4.1574E2	3.445606E0
4.162E2	4.109185E0
4.1667E2	4.513495E0
4.1713E2	3.373968E0
4.176E2	3.797667E0
4.1806E2	6.045514E0
4.1853E2	4.690286E0
4.19E2	3.580583E0
4.1946E2	3.872015E0
4.1993E2	3.924138E0
4.2039E2	5.030091E0
4.2086E2	3.048295E0
4.2132E2	3.557481E0
4.2179E2	4.098063E0
4.2225E2	3.676529E0
4.2272E2	4.953146E0
4.2318E2	4.591877E0
4.2365E2	3.829913E0
4.2411E2	5.178584E0
4.2458E2	2.918011E0
4.2505E2	3.834808E0
4.2551E2	5.729431E0
4.2598E2	4.763915E0
4.2644E2	4.27959E0
4.2691E2	4.530532E0
4.2737E2	5.561678E0
4.2784E2	3.677758E0
4.283E2	3.281895E0
4.2877E2	4.633738E0
4.2923E2	4.017487E0
4.297E2	3.621447E0
4.3016E2	5.466703E0
4.3063E2	4.131527E0
4.3109E2	4.305418E0
4.3156E2	3.810078E0
4.3202E2	4.273608E0
4.3249E2	3.994682E0
4.3295E2	4.023863E0
4.3341E2	5.480195E0
4.3388E2	3.753744E0
4.3434E2	4.21251E0
4.3481E2	3.555066E0
4.3527E2	4.707233E0
4.3574E2	5.619297E0
4.362E2	4.9565E0
4.3667E2	5.830055E0
4.3713E2	4.957393E0
4.376E2	4.277343E0
4.3806E2	5.171733E0
4.3852E2	4.685999E0
4.3899E2	3.842443E0
4.3945E2	5.477788E0
4.3992E2	5.775139E0
4.4038E2	4.312423E0
4.4085E2	4.688709E0
4.4131E2	5.397019E0
4.4178E2	5.672136E0
4.4224E2	5.385094E0
4.427E2	5.034931E0
4.4317E2	5.460131E0
4.4363E2	5.106277E0
4.441E2	5.187112E0
4.4456E2	5.550993E0
4.4502E2	5.161761E0
4.4549E2	5.128849E0
4.4595E2	5.798616E0
4.4642E2	6.075644E0
4.4688E2	5.406766E0
4.4734E2	5.371356E0
4.4781E2	5.636243E0
4.4827E2	4.963631E0
4.4874E2	5.032431E0
4.492E2	5.127859E0
4.4966E2	5.180248E0
4.5013E2	5.575652E0
4.5059E2	5.913648E0
4.5106E2	5.568475E0
4.5152E2	5.757285E0
4.5198E2	5.644054E0
4.5245E2	5.029987E0
4.5291E2	5.282539E0
4.5337E2	4.892167E0
4.5384E2	5.341615E0
4.543E2	5.214966E0
4.5476E2	5.539194E0
4.5523E2	6.524252E0
4.5569E2	4.97889E0
4.5615E2	5.193502E0
4.5662E2	5.431334E0
4.5708E2	5.463582E0
4.5754E2	4.791015E0
4.5801E2	4.748635E0
4.5847E2	6.525389E0
4.5893E2	5.508055E0
4.594E2	5.781256E0
4.5986E2	5.946485E0
4.6032E2	5.650667E0
4.6079E2	5.149991E0
4.6125E2	5.487145E0
4.6171E2	5.641409E0
4.6218E2	5.909287E0
4.6264E2	5.446479E0
4.631E2	5.506458E0
4.6357E2	5.377262E0
4.6403E2	5.691991E0
4.6449E2	6.663035E0
4.6496E2	6.215972E0
4.6542E2	5.358955E0
4.6588E2	5.853738E0
4.6634E2	6.021513E0
4.6681E2	5.600324E0
4.6727E2	5.724104E0
4.6773E2	5.847972E0
4.682E2	5.215535E0
4.6866E2	5.677319E0
4.6912E2	5.612039E0
4.6958E2	6.402292E0
4.7005E2	5.999049E0
4.7051E2	5.682713E0
4.7097E2	6.052366E0
4.7143E2	5.310885E0
4.719E2	6.340823E0
4.7236E2	6.763746E0
4.7282E2	6.277407E0
4.7328E2	5.784549E0
4.7375E2	5.661223E0
4.7421E2	6.378027E0
4.7467E2	5.777658E0
4.7513E2	6.578843E0
4.756E2	7.163432E0
4.7606E2	6.691079E0
4.7652E2	6.591056E0
4.7698E2	7.03848E0
4.7745E2	6.516994E0
4.7791E2	6.416125E0
4.7837E2	6.368631E0
4.7883E2	6.619247E0
4.793E2	6.10099E0
4.7976E2	5.579076E0
4.8022E2	6.078402E0
4.8068E2	6.372854E0
4.8114E2	6.069983E0
4.8161E2	6.481617E0
4.8207E2	6.480237E0
4.8253E2	6.507443E0
4.8299E2	6.779765E0
4.8345E2	7.161912E0
4.8392E2	6.914519E0
4.8438E2	6.597048E0
4.8484E2	6.509413E0
4.853E2	6.739314E0
4.8576E2	6.670346E0
4.8622E2	6.786295E0
4.8669E2	6.674641E0
4.8715E2	6.702143E0
4.8761E2	6.74665E0
4.8807E2	7.309609E0
4.8853E2	7.467334E0
4.8899E2	6.674514E0
4.8946E2	7.117394E0
4.8992E2	7.10506E0
4.9038E2	6.646552E0
4.9084E2	7.529335E0
4.913E2	7.102729E0
4.9176E2	7.304363E0
4.9223E2	6.765524E0
4.9269E2	7.264664E0
4.9315E2	6.931548E0
4.9361E2	6.884799E0
4.9407E2	7.752127E0
4.9453E2	6.967481E0
4.9499E2	7.277756E0
4.9546E2	7.027217E0
4.9592E2	7.35306E0
4.9638E2	7.455762E0
4.9684E2	7.24715E0
4.973E2	7.429906E0
4.9776E2	7.180193E0
4.9822E2	6.962736E0
4.9868E2	7.624839E0
4.9914E2	7.23131E0
4.9961E2	7.448876E0
5.0007E2	7.290081E0
5.0053E2	7.933031E0
5.0099E2	7.31821E0
5.0145E2	7.873657E0
5.0191E2	7.938538E0
5.0237E2	7.624146E0
5.0283E2	7.417096E0
5.0329E2	7.493743E0
5.0375E2	7.81628E0
5.0421E2	7.584801E0
5.0468E2	7.518449E0
5.0514E2	7.610042E0
5.056E2	7.553906E0
5.0606E2	7.633599E0
5.0652E2	8.2189E0
5.0698E2	7.492362E0
5.0744E2	8.194674E0
5.079E2	8.380895E0
5.0836E2	8.326167E0
5.0882E2	8.265168E0
5.0928E2	8.423558E0
5.0974E2	8.246993E0
5.102E2	8.495097E0
5.1066E2	8.646645E0
5.1112E2	8.402516E0
5.1158E2	8.745555E0
5.1204E2	8.26106E0
5.125E2	8.459377E0
5.1296E2	8.622708E0
5.1342E2	8.474785E0
5.1389E2	8.383543E0
5.1435E2	8.451924E0
5.1481E2	8.815626E0
5.1527E2	8.87051E0
5.1573E2	8.688096E0
5.1619E2	8.478994E0
5.1665E2	8.758438E0
5.1711E2	8.731862E0
5.1757E2	8.912676E0
5.1803E2	9.02387E0
5.1849E2	9.217133E0
5.1895E2	9.235958E0
5.1941E2	8.91134E0
5.1987E2	9.01195E0
5.2033E2	9.272381E0
5.2079E2	9.106326E0
5.2125E2	9.423765E0
5.2171E2	9.323537E0
5.2217E2	9.786264E0
5.2263E2	9.593386E0
5.2308E2	9.444901E0
5.2354E2	9.024699E0
5.24E2	9.489669E0
5.2446E2	9.766854E0
5.2492E2	9.66581E0
5.2538E2	9.498895E0
5.2584E2	9.675315E0
5.263E2	9.327215E0
5.2676E2	9.959182E0
5.2722E2	9.750157E0
5.2768E2	9.602943E0
5.2814E2	10.41624E0
5.286E2	9.770138E0
5.2906E2	9.727842E0
5.2952E2	9.437615E0
5.2998E2	10.24599E0
5.3044E2	10.46407E0
5.309E2	10.22653E0
5.3136E2	10.49117E0
5.3181E2	10.27955E0
5.3227E2	10.0295E0
5.3273E2	10.41809E0
5.3319E2	10.25915E0
5.3365E2	10.18149E0
5.3411E2	10.29909E0
5.3457E2	11.17092E0
5.3503E2	10.85388E0
5.3549E2	10.76576E0
5.3595E2	10.58893E0
5.3641E2	10.80112E0
5.3687E2	10.71982E0
5.3732E2	11.00228E0
5.3778E2	10.57803E0
5.3824E2	10.81326E0
5.387E2	10.8208E0
5.3916E2	10.83181E0
5.3962E2	11.21384E0
5.4008E2	10.95161E0
5.4054E2	11.11778E0
5.4099E2	10.93616E0
5.4145E2	11.27548E0
5.4191E2	11.34831E0
5.4237E2	11.14556E0
5.4283E2	10.86335E0
5.4329E2	11.03278E0
5.4375E2	11.47282E0
5.4421E2	11.41728E0
5.4466E2	11.40011E0
5.4512E2	11.83913E0
5.4558E2	11.14427E0
5.4604E2	11.29508E0
5.465E2	11.45015E0
5.4696E2	11.52537E0
5.4741E2	11.6941E0
5.4787E2	11.63336E0
5.4833E2	12.15681E0
5.4879E2	11.42407E0
5.4925E2	11.81807E0
5.4971E2	12.04518E0
5.5016E2	11.6953E0
5.5062E2	12.10754E0
5.5108E2	12.15728E0
5.5154E2	11.74747E0
5.52E2	11.94801E0
5.5245E2	11.87446E0
5.5291E2	12.37261E0
5.5337E2	12.22648E0
5.5383E2	11.91519E0
5.5429E2	12.22771E0
5.5474E2	12.0238E0
5.552E2	12.34778E0
5.5566E2	12.12882E0
5.5612E2	12.69708E0
5.5658E2	12.27275E0
5.5703E2	12.23058E0
5.5749E2	12.67328E0
5.5795E2	12.20244E0
5.5841E2	12.08155E0
5.5887E2	12.09924E0
5.5932E2	12.43906E0
5.5978E2	12.08418E0
5.6024E2	12.51054E0
5.607E2	12.82093E0
5.6115E2	12.75394E0
5.6161E2	12.39789E0
5.6207E2	12.56524E0
5.6253E2	12.57495E0
5.6298E2	12.21621E0
5.6344E2	12.849E0
5.639E2	13.13508E0
5.6436E2	12.90176E0
5.6481E2	13.02121E0
5.6527E2	12.82663E0
5.6573E2	12.69742E0
5.6619E2	12.41884E0
5.6664E2	12.92359E0
5.671E2	13.22266E0
5.6756E2	12.71095E0
5.6801E2	13.07854E0
5.6847E2	13.08471E0
5.6893E2	12.63168E0
5.6939E2	13.14425E0
5.6984E2	13.2565E0
5.703E2	12.98203E0
5.7076E2	13.16147E0
5.7121E2	13.14108E0
5.7167E2	13.22632E0
5.7213E2	13.51092E0
5.7259E2	13.09725E0
5.7304E2	13.33668E0
5.735E2	13.6907E0
5.7396E2	13.50395E0
5.7441E2	13.60142E0
5.7487E2	13.19131E0
5.7533E2	13.19045E0
5.7578E2	13.98164E0
5.7624E2	13.2131E0
5.767E2	13.80337E0
5.7715E2	13.12874E0
5.7761E2	13.43509E0
5.7807E2	13.7163E0
5.7852E2	13.86898E0
5.7898E2	13.49787E0
5.7944E2	13.53685E0
5.7989E2	13.84312E0
5.8035E2	13.89062E0
5.8081E2	13.69162E0
5.8126E2	13.81226E0
5.8172E2	13.51536E0
5.8218E2	13.76322E0
5.8263E2	13.98283E0
5.8309E2	13.93603E0
5.8355E2	13.53494E0
5.84E2	13.71199E0
5.8446E2	13.96639E0
5.8491E2	14.37948E0
5.8537E2	14.24789E0
5.8583E2	14.17846E0
5.8628E2	14.43675E0
5.8674E2	14.45267E0
5.872E2	14.52436E0
5.8765E2	14.35462E0
5.8811E2	14.10734E0
5.8856E2	14.18526E0
5.8902E2	14.08339E0
5.8948E2	14.18258E0
5.8993E2	14.35543E0
5.9039E2	14.6333E0
5.9084E2	14.36701E0
5.913E2	14.73122E0
5.9176E2	14.7615E0
5.9221E2	14.39647E0
5.9267E2	14.52145E0
5.9312E2	14.69269E0
5.9358E2	14.26525E0
5.9403E2	14.39787E0
5.9449E2	15.33076E0
5.9495E2	14.80304E0
5.954E2	14.60228E0
5.9586E2	14.8941E0
5.9631E2	14.97397E0
5.9677E2	14.80732E0
5.9722E2	15.52215E0
5.9768E2	15.33024E0
5.9814E2	15.66468E0
5.9859E2	15.24E0
5.9905E2	14.96387E0
5.995E2	15.59998E0
5.9996E2	14.90411E0
6.0041E2	15.414E0
6.0087E2	15.92819E0
6.0132E2	15.10031E0
6.0178E2	15.66493E0
6.0223E2	15.64568E0
6.0269E2	15.90306E0
6.0314E2	15.48252E0
6.036E2	15.90962E0
6.0406E2	14.99161E0
6.0451E2	15.28593E0
6.0497E2	15.64916E0
6.0542E2	16.44742E0
6.0588E2	16.03186E0
6.0633E2	15.9911E0
6.0679E2	16.39291E0
6.0724E2	16.32618E0
6.077E2	15.86181E0
6.0815E2	16.37621E0
6.0861E2	16.46684E0
6.0906E2	15.91252E0
6.0952E2	16.15349E0
6.0997E2	15.75014E0
6.1043E2	15.93645E0
6.1088E2	16.33631E0
6.1134E2	15.70821E0
6.1179E2	16.73389E0
6.1224E2	16.36624E0
6.127E2	17.10314E0
6.1315E2	16.06832E0
6.1361E2	16.59313E0
6.1406E2	16.54461E0
6.1452E2	16.03797E0
6.1497E2	16.39568E0
6.1543E2	16.65427E0
6.1588E2	16.93566E0
6.1634E2	16.74073E0
6.1679E2	16.74167E0
6.1725E2	17.33668E0
6.177E2	17.06773E0
6.1815E2	16.93693E0
6.1861E2	17.16098E0
6.1906E2	17.47452E0
6.1952E2	17.05451E0
6.1997E2	16.51595E0
6.2043E2	16.6997E0
6.2088E2	16.78976E0
6.2133E2	17.46058E0
6.2179E2	17.29662E0
6.2224E2	16.74638E0
6.227E2	16.72829E0
6.2315E2	17.85057E0
6.2361E2	17.64098E0
6.2406E2	17.73762E0
6.2451E2	16.82765E0
6.2497E2	17.71822E0
6.2542E2	17.07895E0
6.2588E2	17.1467E0
6.2633E2	17.20146E0
6.2678E2	17.4754E0
6.2724E2	17.54508E0
6.2769E2	17.86493E0
6.2815E2	18.20221E0
6.286E2	17.84313E0
6.2905E2	17.21917E0
6.2951E2	18.10127E0
6.2996E2	17.74657E0
6.3041E2	17.54051E0
6.3087E2	17.85695E0
6.3132E2	17.28675E0
6.3178E2	17.76619E0
6.3223E2	17.61208E0
6.3268E2	18.27386E0
6.3314E2	18.01565E0
6.3359E2	18.178E0
6.3404E2	18.16045E0
6.345E2	17.89397E0
6.3495E2	17.93849E0
6.354E2	18.30152E0
6.3586E2	17.90725E0
6.3631E2	17.72022E0
6.3676E2	18.04567E0
6.3722E2	18.47509E0
6.3767E2	18.21271E0
6.3812E2	18.23259E0
6.3858E2	17.90035E0
6.3903E2	18.28034E0
6.3948E2	17.756E0
6.3994E2	18.63799E0
6.4039E2	18.62149E0
6.4084E2	19.08639E0
6.413E2	18.46372E0
6.4175E2	19.19078E0
6.422E2	18.13508E0
6.4266E2	18.68702E0
6.4311E2	19.21766E0
6.4356E2	18.78334E0
6.4401E2	18.42862E0
6.4447E2	18.3684E0
6.4492E2	18.14258E0
6.4537E2	18.11665E0
6.4583E2	18.09156E0
6.4628E2	18.77178E0
6.4673E2	18.51125E0
6.4718E2	18.94287E0
6.4764E2	18.27894E0
6.4809E2	19.58283E0
6.4854E2	18.42254E0
6.49E2	18.6067E0
6.4945E2	19.61534E0
6.499E2	18.39472E0
6.5035E2	18.7079E0
6.5081E2	18.21949E0
6.5126E2	19.15046E0
6.5171E2	17.96953E0
6.5216E2	18.55557E0
6.5262E2	17.99333E0
6.5307E2	18.36496E0
6.5352E2	18.84998E0
6.5397E2	19.05323E0
6.5443E2	18.97001E0
6.5488E2	18.86663E0
6.5533E2	19.21881E0
6.5578E2	19.00618E0
6.5624E2	18.55916E0
6.5669E2	19.999E0
6.5714E2	19.23176E0
6.5759E2	18.97334E0
6.5804E2	19.37337E0
6.585E2	19.53921E0
6.5895E2	19.12757E0
6.594E2	19.15046E0
6.5985E2	19.03554E0
6.6031E2	18.89563E0
6.6076E2	18.91725E0
6.6121E2	19.02671E0
6.6166E2	19.44342E0
6.6211E2	19.17105E0
6.6257E2	18.76412E0
6.6302E2	19.33604E0
6.6347E2	18.48487E0
6.6392E2	19.36942E0
6.6437E2	19.48407E0
6.6482E2	18.99066E0
6.6528E2	19.25422E0
6.6573E2	19.22627E0
6.6618E2	19.82989E0
6.6663E2	19.44337E0
6.6708E2	19.48504E0
6.6753E2	20.25393E0
6.6799E2	19.29236E0
6.6844E2	19.35608E0
6.6889E2	19.65425E0
6.6934E2	19.62129E0
6.6979E2	18.98061E0
6.7024E2	19.7512E0
6.707E2	19.15628E0
6.7115E2	19.15521E0
6.716E2	19.99906E0
6.7205E2	19.90204E0
6.725E2	19.43563E0
6.7295E2	18.71744E0
6.734E2	19.36684E0
6.7386E2	19.58908E0
6.7431E2	19.88978E0
6.7476E2	19.04458E0
6.7521E2	19.40241E0
6.7566E2	19.09587E0
6.7611E2	19.76128E0
6.7656E2	20.69823E0
6.7701E2	19.45937E0
6.7746E2	20.15772E0
6.7792E2	19.52778E0
6.7837E2	19.95238E0
6.7882E2	19.54673E0
6.7927E2	19.91224E0
6.7972E2	20.37205E0
6.8017E2	20.90233E0
6.8062E2	19.97918E0
6.8107E2	20.41903E0
6.8152E2	21.67431E0
6.8197E2	20.20108E0
6.8243E2	20.19331E0
6.8288E2	21.14023E0
6.8333E2	20.47141E0
6.8378E2	21.02862E0
6.8423E2	20.88044E0
6.8468E2	20.47489E0
6.8513E2	20.10929E0
6.8558E2	20.8954E0
6.8603E2	20.54304E0
6.8648E2	20.43011E0
6.8693E2	20.21586E0
6.8738E2	21.50557E0
6.8783E2	21.29281E0
6.8828E2	20.72507E0
6.8873E2	21.82417E0
6.8918E2	21.80316E0
6.8964E2	21.62312E0
6.9009E2	22.52001E0
6.9054E2	22.02323E0
6.9099E2	21.76851E0
6.9144E2	22.81766E0
6.9189E2	23.98252E0
6.9234E2	23.5408E0
6.9279E2	22.87937E0
6.9324E2	23.70357E0
6.9369E2	24.20398E0
6.9414E2	23.1604E0
6.9459E2	24.25092E0
6.9504E2	24.75971E0
6.9549E2	24.88796E0
6.9594E2	23.97413E0
6.9639E2	24.40172E0
6.9684E2	23.95685E0
6.9729E2	23.85754E0
6.9774E2	25.40412E0
6.9819E2	25.59146E0
6.9864E2	25.62007E0
6.9909E2	25.54417E0
6.9954E2	25.90319E0
6.9999E2	26.18411E0
7.0044E2	24.81794E0
7.0089E2	26.28883E0
7.0134E2	26.61587E0
7.0179E2	26.29153E0
7.0224E2	26.528E0
7.0269E2	25.78069E0
7.0314E2	25.6189E0
7.0359E2	26.25147E0
7.0404E2	27.28537E0
7.0448E2	26.57043E0
7.0493E2	26.29566E0
7.0538E2	28.15691E0
7.0583E2	27.38514E0
7.0628E2	26.73093E0
7.0673E2	27.75878E0
7.0718E2	27.24023E0
7.0763E2	27.52641E0
7.0808E2	27.06209E0
7.0853E2	27.47459E0
7.0898E2	27.82968E0
7.0943E2	26.82891E0
7.0988E2	28.16979E0
7.1033E2	28.28984E0
7.1078E2	28.43537E0
7.1123E2	28.69396E0
7.1167E2	27.26938E0
7.1212E2	27.64107E0
7.1257E2	29.46984E0
7.1302E2	29.13864E0
7.1347E2	29.0383E0
7.1392E2	28.28487E0
7.1437E2	29.04052E0
7.1482E2	29.4252E0
7.1527E2	28.19654E0
7.1572E2	28.82328E0
7.1617E2	29.72398E0
7.1661E2	27.3568E0
7.1706E2	28.70416E0
7.1751E2	30.292E0
7.1796E2	27.53874E0
7.1841E2	28.28369E0
7.1886E2	29.57523E0
7.1931E2	29.668E0
7.1976E2	30.09756E0
7.202E2	27.99535E0
7.2065E2	30.40358E0
7.211E2	30.13298E0
7.2155E2	29.93378E0
7.22E2	30.15557E0
7.2245E2	29.59201E0
7.229E2	29.8345E0
7.2334E2	30.66068E0
7.2379E2	30.2428E0
7.2424E2	28.8678E0
7.2469E2	28.81405E0
7.2514E2	30.95009E0
7.2559E2	30.75418E0
7.2604E2	29.67511E0
7.2648E2	29.95119E0
7.2693E2	29.46557E0
7.2738E2	30.16085E0
7.2783E2	29.19148E0
7.2828E2	31.59796E0
7.2873E2	30.61224E0
7.2917E2	31.07345E0
7.2962E2	30.84863E0
7.3007E2	31.26475E0
7.3052E2	28.25948E0
7.3097E2	30.47966E0
7.3141E2	29.64113E0
7.3186E2	30.65654E0
7.3231E2	32.59994E0
7.3276E2	32.14464E0
7.3321E2	32.5326E0
7.3365E2	30.84171E0
7.341E2	30.88817E0
7.3455E2	32.13845E0
7.35E2	31.9165E0
7.3545E2	31.50392E0
7.3589E2	30.70447E0
7.3634E2	31.67798E0
7.3679E2	32.89253E0
7.3724E2	32.6761E0
7.3768E2	31.61761E0
7.3813E2	32.75871E0
7.3858E2	31.70194E0
7.3903E2	31.97117E0
7.3947E2	30.77767E0
7.3992E2	32.95278E0
7.4037E2	33.34006E0
7.4082E2	33.4892E0
7.4127E2	33.43507E0
7.4171E2	33.86696E0
7.4216E2	33.04229E0
7.4261E2	32.07159E0
7.4305E2	32.86814E0
7.435E2	32.00872E0
7.4395E2	31.70994E0
7.444E2	34.43731E0
7.4484E2	34.45548E0
7.4529E2	33.32665E0
7.4574E2	33.02413E0
7.4619E2	34.49412E0
7.4663E2	33.11537E0
7.4708E2	33.91931E0
7.4753E2	33.74338E0
7.4797E2	33.24337E0
7.4842E2	32.67195E0
7.4887E2	33.85149E0
7.4932E2	35.56228E0
7.4976E2	33.82406E0
7.5021E2	32.17248E0
7.5066E2	33.75206E0
7.511E2	33.28465E0
7.5155E2	34.27524E0
7.52E2	33.98277E0
7.5245E2	33.56654E0
7.5289E2	33.59841E0
7.5334E2	32.94792E0
7.5379E2	33.70996E0
7.5423E2	32.55776E0
7.5468E2	35.01071E0
7.5513E2	33.18301E0
7.5557E2	32.35574E0
7.5602E2	30.6757E0
7.5647E2	33.47105E0
7.5691E2	33.84221E0
7.5736E2	33.38746E0
7.5781E2	34.52741E0
7.5825E2	34.87627E0
7.587E2	34.20599E0
7.5915E2	32.15339E0
7.5959E2	30.72713E0
7.6004E2	29.88121E0
7.6048E2	30.65256E0
7.6093E2	36.20494E0
7.6138E2	31.67968E0
7.6182E2	28.45266E0
7.6227E2	31.47601E0
7.6272E2	31.90606E0
7.6316E2	32.64935E0
7.6361E2	29.1685E0
7.6406E2	33.90424E0
7.645E2	29.76421E0
7.6495E2	32.85139E0
7.6539E2	32.96504E0
7.6584E2	36.70932E0
7.6629E2	35.09825E0
7.6673E2	33.20125E0
7.6718E2	35.02011E0
7.6762E2	34.56024E0
7.6807E2	33.37988E0
7.6852E2	33.64159E0
7.6896E2	35.82734E0
7.6941E2	33.73713E0
7.6985E2	35.34856E0
7.703E2	34.14034E0
7.7075E2	33.28871E0
7.7119E2	34.45923E0
7.7164E2	35.01839E0
7.7208E2	34.36622E0
7.7253E2	32.96503E0
7.7297E2	37.19634E0
7.7342E2	33.39756E0
7.7387E2	34.15359E0
7.7431E2	34.0476E0
7.7476E2	36.17736E0
7.752E2	36.21577E0
7.7565E2	34.81717E0
7.7609E2	34.45701E0
7.7654E2	34.05375E0
7.7699E2	34.10084E0
7.7743E2	34.25379E0
7.7788E2	34.38365E0
7.7832E2	34.18908E0
7.7877E2	34.60408E0
7.7921E2	34.15412E0
7.7966E2	34.77855E0
7.801E2	34.84906E0
7.8055E2	35.80591E0
7.8099E2	34.57832E0
7.8144E2	35.19029E0
7.8188E2	34.75794E0
7.8233E2	35.54203E0
7.8277E2	34.39563E0
7.8322E2	35.4461E0
7.8367E2	36.77816E0
7.8411E2	37.05608E0
7.8456E2	35.10939E0
7.85E2	35.48032E0
7.8545E2	36.13568E0
7.8589E2	32.56362E0
7.8634E2	34.92489E0
7.8678E2	35.74304E0
7.8723E2	35.196E0
7.8767E2	34.97826E0
7.8812E2	33.85512E0
7.8856E2	35.21939E0
7.89E2	36.44877E0
7.8945E2	36.1864E0
7.8989E2	34.84804E0
7.9034E2	35.70262E0
7.9078E2	34.30602E0
7.9123E2	33.7449E0
7.9167E2	35.12506E0
7.9212E2	38.11818E0
7.9256E2	37.24262E0
7.9301E2	34.98416E0
7.9345E2	35.76824E0
7.939E2	36.06542E0
7.9434E2	35.08385E0
7.9479E2	33.34667E0
7.9523E2	33.29338E0
7.9567E2	36.32913E0
7.9612E2	34.12317E0
7.9656E2	36.40514E0
7.9701E2	38.962E0
7.9745E2	35.00362E0
7.979E2	38.44357E0
7.9834E2	35.70759E0
7.9878E2	37.6716E0
7.9923E2	35.8246E0
7.9967E2	35.01259E0
8.0012E2	38.09151E0
8.0056E2	35.25343E0
8.0101E2	36.46681E0
8.0145E2	36.77681E0
8.0189E2	38.2716E0
8.0234E2	32.78477E0
8.0278E2	35.16367E0
8.0323E2	35.9292E0
8.0367E2	33.60646E0
8.0411E2	36.24284E0
8.0456E2	35.67413E0
8.05E2	36.76356E0
8.0545E2	35.60392E0
8.0589E2	37.88692E0
8.0633E2	36.03892E0
8.0678E2	33.66278E0
8.0722E2	37.71153E0
8.0767E2	38.45621E0
8.0811E2	35.23518E0
8.0855E2	34.81826E0
8.09E2	38.44083E0
8.0944E2	34.49451E0
8.0988E2	33.96299E0
8.1033E2	31.76096E0
8.1077E2	34.6742E0
8.1121E2	31.33492E0
8.1166E2	38.30712E0
8.121E2	33.83754E0
8.1255E2	36.15156E0
8.1299E2	32.45658E0
8.1343E2	35.59058E0
8.1388E2	33.20441E0
8.1432E2	34.48484E0
8.1476E2	37.90836E0
8.1521E2	41.07922E0
8.1565E2	37.4745E0
8.1609E2	31.76904E0
8.1654E2	39.50527E0
8.1698E2	39.55492E0
8.1742E2	31.44188E0
8.1787E2	37.89253E0
8.1831E2	31.88868E0
8.1875E2	35.70053E0
8.1919E2	36.2139E0
8.1964E2	36.62328E0
8.2008E2	36.11767E0
8.2052E2	37.08824E0
8.2097E2	36.98159E0
8.2141E2	32.92174E0
8.2185E2	30.67793E0
8.223E2	33.30375E0
8.2274E2	36.69344E0
8.2318E2	35.78325E0
8.2362E2	31.8269E0
8.2407E2	38.6115E0
8.2451E2	35.37354E0
8.2495E2	35.37633E0
8.254E2	31.40304E0
8.2584E2	37.10433E0
8.2628E2	36.2356E0
8.2672E2	37.84108E0
8.2717E2	37.9848E0
8.2761E2	36.19279E0
8.2805E2	32.08411E0
8.285E2	37.47715E0
8.2894E2	37.70908E0
8.2938E2	33.09538E0
8.2982E2	36.62328E0
8.3027E2	33.8599E0
8.3071E2	35.73598E0
8.3115E2	36.58537E0
8.3159E2	34.84758E0
8.3204E2	34.58255E0
8.3248E2	32.54918E0
8.3292E2	37.0844E0
8.3336E2	36.42785E0
8.338E2	32.12705E0
8.3425E2	36.74958E0
8.3469E2	33.59698E0
8.3513E2	36.4518E0
8.3557E2	41.95595E0
8.3602E2	35.90901E0
8.3646E2	35.80746E0
8.369E2	34.47016E0
8.3734E2	40.51453E0
8.3778E2	35.34114E0
8.3823E2	35.21702E0
8.3867E2	40.48918E0
8.3911E2	33.40245E0
8.3955E2	35.31276E0
8.3999E2	35.04011E0
8.4044E2	38.04252E0
8.4088E2	37.42596E0
8.4132E2	40.40529E0
8.4176E2	41.35813E0
8.422E2	39.32198E0
8.4265E2	36.21953E0
8.4309E2	38.50624E0
8.4353E2	36.48294E0
8.4397E2	37.03769E0
8.4441E2	35.61621E0
8.4485E2	35.51611E0
8.453E2	36.94564E0
8.4574E2	34.63048E0
8.4618E2	35.35848E0
8.4662E2	33.16556E0
8.4706E2	32.8799E0
8.475E2	38.04403E0
8.4795E2	35.15855E0
8.4839E2	32.78365E0
8.4883E2	34.37443E0
8.4927E2	36.64551E0
8.4971E2	36.11803E0
8.5015E2	32.98908E0
8.5059E2	37.67084E0
8.5104E2	35.03609E0
8.5148E2	35.72414E0
8.5192E2	33.9996E0
8.5236E2	33.20733E0
8.528E2	35.00697E0
8.5324E2	36.08669E0
8.5368E2	38.20201E0
8.5412E2	35.22173E0
8.5456E2	36.93855E0
8.5501E2	35.88075E0
8.5545E2	35.55244E0
8.5589E2	38.06629E0
8.5633E2	40.1327E0
8.5677E2	37.26033E0
8.5721E2	38.05676E0
8.5765E2	33.6701E0
8.5809E2	35.8253E0
8.5853E2	38.09619E0
8.5897E2	36.14756E0
8.5942E2	39.08335E0
8.5986E2	38.41642E0
8.603E2	38.81902E0
8.6074E2	42.81285E0
8.6118E2	35.78054E0
8.6162E2	32.03723E0
8.6206E2	34.30657E0
8.625E2	38.9649E0
8.6294E2	38.73609E0
8.6338E2	34.52096E0
8.6382E2	41.17647E0
8.6426E2	35.10337E0
8.647E2	38.90452E0
8.6514E2	37.65586E0
8.6559E2	39.04094E0
8.6603E2	36.17837E0
8.6647E2	30.14957E0
8.6691E2	38.59444E0
8.6735E2	39.27499E0
8.6779E2	39.14757E0
8.6823E2	35.28749E0
8.6867E2	37.54258E0
8.6911E2	33.30155E0
8.6955E2	35.0347E0
8.6999E2	38.36419E0
8.7043E2	36.37004E0
8.7087E2	34.83352E0
8.7131E2	41.17647E0
8.7175E2	38.32621E0
8.7219E2	35.02867E0
8.7263E2	31.27602E0
8.7307E2	37.7345E0
8.7351E2	34.43692E0
8.7395E2	41.59467E0
8.7439E2	40.58154E0
8.7483E2	41.88522E0
8.7527E2	40.233E0
8.7571E2	38.20196E0
8.7615E2	35.0405E0
8.7659E2	37.06218E0
8.7703E2	37.8262E0
8.7747E2	38.12516E0
8.7791E2	33.74405E0
8.7835E2	35.53286E0
8.7879E2	33.64559E0
8.7923E2	36.57446E0
8.7967E2	36.57978E0
8.8011E2	38.41704E0
8.8055E2	33.61219E0
8.8099E2	32.3759E0
8.8143E2	38.12648E0
8.8187E2	36.69344E0
8.8231E2	33.93232E0
8.8275E2	35.89819E0
8.8319E2	41.03979E0
8.8363E2	32.73435E0
8.8406E2	34.93351E0
8.845E2	41.49204E0
8.8494E2	37.93978E0
8.8538E2	35.6936E0
8.8582E2	33.37346E0
8.8626E2	37.61633E0
8.867E2	38.42913E0
8.8714E2	38.67385E0
8.8758E2	37.10879E0
8.8802E2	35.5341E0
8.8846E2	33.8665E0
8.889E2	36.49416E0
8.8934E2	42.86639E0
8.8978E2	35.01191E0
8.9021E2	32.82601E0
8.9065E2	39.14237E0
8.9109E2	39.64889E0
8.9153E2	34.05543E0
8.9197E2	39.96317E0
8.9241E2	40.08375E0
8.9285E2	36.17021E0
8.9329E2	34.6889E0
8.9373E2	40.17249E0
8.9417E2	33.50854E0
8.946E2	41.68629E0
8.9504E2	40.10441E0
8.9548E2	36.20991E0
8.9592E2	31.95374E0
8.9636E2	35.64179E0
8.968E2	41.56588E0
8.9724E2	29.23448E0
8.9768E2	41.25956E0
8.9811E2	43.36918E0
8.9855E2	37.48947E0
8.9899E2	41.70572E0
8.9943E2	47.0852E0
8.9987E2	27.37255E0
9.0031E2	38.3749E0
9.0075E2	38.15498E0
9.0118E2	42.13529E0
9.0162E2	22.69558E0
9.0206E2	33.43002E0
9.025E2	40.81774E0
9.0294E2	27.31183E0
9.0338E2	30.05399E0
9.0382E2	36.52573E0
9.0425E2	36.24454E0
9.0469E2	35.01924E0
9.0513E2	36.8984E0
9.0557E2	36.29274E0
9.0601E2	36.6933E0
9.0644E2	38.76898E0
9.0688E2	56.18698E0
9.0732E2	42.27902E0
9.0776E2	35.54041E0
9.082E2	41.87884E0
9.0864E2	24.83349E0
9.0907E2	50.69252E0
9.0951E2	30.68933E0
9.0995E2	43.08943E0
9.1039E2	40.6278E0
9.1083E2	31.02821E0
9.1126E2	40.04648E0
9.117E2	46.99908E0
9.1214E2	23.97906E0
9.1258E2	30.23256E0
9.1302E2	31.35509E0
9.1345E2	42.40838E0
9.1389E2	30.2994E0
9.1433E2	37.90239E0
9.1477E2	34.64481E0
9.152E2	34.75682E0
9.1564E2	53.53535E0
9.1608E2	48.24281E0
9.1652E2	29.03226E0
9.1695E2	40.55158E0
9.1739E2	45.61213E0
9.1783E2	30.65596E0
9.1827E2	38.01917E0
9.187E2	35.31157E0
9.1914E2	45.57709E0
9.1958E2	26.24237E0
9.2002E2	37.85148E0
9.2045E2	45.10121E0
9.2089E2	36.27376E0
9.2133E2	43.6409E0
9.2177E2	36.44409E0
9.222E2	37.65586E0
9.2264E2	40.28723E0
9.2308E2	51.86961E0
9.2352E2	51.99183E0
9.2395E2	36.22857E0
9.2439E2	24.58287E0
9.2483E2	46.75972E0
9.2526E2	34.61012E0
9.257E2	45.86636E0
9.2614E2	44.10906E0
9.2658E2	42.74711E0
9.2701E2	22.43839E0
9.2745E2	44.24674E0
9.2789E2	34.05405E0
9.2832E2	46.89826E0
9.2876E2	52.88889E0
9.292E2	39.80583E0
9.2963E2	29.52381E0
9.3007E2	88.04781E0
9.3051E2	36.72727E0
9.3095E2	-22.89157E0
9.3138E2	-17.41935E0
9.3182E2	45.17375E0
9.3226E2	66.90647E0
9.3269E2	34.93976E0
9.3313E2	1.672241E0
9.3357E2	54.83871E0
9.34E2	-59.32203E0
9.3444E2	1.164706E2
9.3488E2	55E2
9.3531E2	-52.94118E0
9.3575E2	-13.30049E0
9.3619E2	-21.31148E0
9.3662E2	-2.297297E2
9.3706E2	6.619048E2
9.3749E2	31.34328E0
9.3793E2	75.40107E0
9.3837E2	-52.94118E0
9.388E2	-1.842105E2
9.3924E2	41.80602E0
9.3968E2	-20.87912E0
9.4011E2	23.07692E0
9.4055E2	73.91304E0
9.4099E2	76.21145E0
9.4142E2	49.67742E0
9.4186E2	39.74684E0
9.4229E2	52.67176E0
9.4273E2	44.57831E0
9.4317E2	2.923977E0
9.436E2	23.57724E0
9.4404E2	31.86813E0
9.4447E2	94.78261E0
9.4491E2	-3.296703E0
9.4535E2	-5.084746E0
9.4578E2	41.4966E0
9.4622E2	75.82418E0
9.4665E2	-11.66667E2
9.4709E2	-5.210526E2
9.4753E2	-1E2
9.4796E2	73.19588E0
9.484E2	80.42553E0
9.4883E2	-25.17986E0
9.4927E2	2.459459E2
9.4971E2	60E0
9.5014E2	-19.19192E0
9.5058E2	68.70748E0
9.5101E2	1.989011E2
9.5145E2	3.816794E0
9.5188E2	35.38462E0
9.5232E2	38.81279E0
9.5275E2	56.35179E0
9.5319E2	51.95531E0
9.5363E2	54.0107E0
9.5406E2	-80.4878E0
9.545E2	75.40107E0
9.5493E2	4.023256E2
9.5537E2	39.63636E0
9.558E2	-33E2
9.5624E2	-31.42857E0
9.5667E2	1.176871E2
9.5711E2	-92.52336E0
9.5754E2	-35.82888E0
9.5798E2	76.41026E0
9.5842E2	73.91304E0
9.5885E2	9.952607E0
9.5929E2	37.93103E0
9.5972E2	82.41042E0
9.6016E2	-37.3913E0
9.6059E2	11.17825E0
9.6103E2	86.18182E0
9.6146E2	-1.842105E2
9.619E2	45.81281E0
9.6233E2	60E0
9.6277E2	52.74463E0
9.632E2	16.03053E0
9.6364E2	28.39506E0
9.6407E2	13.93189E0
9.6451E2	24.30279E0
9.6494E2	-4.11985E0
9.6538E2	52.65018E0
9.6581E2	36.45485E0
9.6625E2	40.23904E0
9.6668E2	-4.909561E0
9.6712E2	48.92601E0
9.6755E2	53.15682E0
9.6798E2	33.06613E0
9.6842E2	65.86922E0
9.6885E2	37.04497E0
9.6929E2	18.07629E0
9.6972E2	43.25069E0
9.7016E2	84.0708E0
9.7059E2	7.49354E0
9.7103E2	4.015296E0
9.7146E2	35.4955E0
9.719E2	54.74957E0
9.7233E2	17.1831E0
9.7277E2	32.09647E0
9.732E2	4.868914E0
9.7363E2	21.77986E0
9.7407E2	53.26316E0
9.745E2	7.341772E0
9.7494E2	12.18391E0
9.7537E2	14.28571E0
9.7581E2	25.75251E0
9.7624E2	61.93353E0
9.7667E2	28.83895E0
9.7711E2	25.87992E0
9.7754E2	29.83294E0
9.7798E2	49.85591E0
9.7841E2	67.39659E0
9.7885E2	14.65798E0
9.7928E2	-7.964602E0
9.7971E2	31.90578E0
9.8015E2	57.4124E0
9.8058E2	26.01432E0
9.8102E2	35.33191E0
9.8145E2	23.26284E0
9.8188E2	48.67257E0
9.8232E2	19.00826E0
9.8275E2	15.29933E0
9.8318E2	58.04481E0
9.8362E2	1.053097E2
9.8405E2	29.52381E0
9.8449E2	49.89817E0
9.8492E2	23.55212E0
9.8535E2	29.85972E0
9.8579E2	51.27768E0
9.8622E2	26.52068E0
9.8665E2	45.01511E0
9.8709E2	43.12618E0
9.8752E2	80.25316E0
9.8796E2	34.89461E0
9.8839E2	34.16149E0
9.8882E2	60.53068E0
9.8926E2	33.61884E0
9.8969E2	-58.56574E0
9.9012E2	59.41499E0
9.9056E2	49.89474E0
9.9099E2	38.75803E0
9.9142E2	42.25621E0
9.9186E2	59.17313E0
9.9229E2	40.63018E0
9.9272E2	34.16149E0
9.9316E2	49.9044E0
9.9359E2	22.39468E0
9.9402E2	3.102625E0
9.9446E2	30.7393E0
9.9489E2	52.46253E0
9.9532E2	31.46293E0
9.9576E2	69.50904E0
9.9619E2	59.14742E0
9.9662E2	42.63566E0
9.9706E2	27.20848E0
9.9749E2	70.60041E0
9.9792E2	44.70284E0
9.9835E2	48.67257E0
9.9879E2	33.58071E0
9.9922E2	94.42231E0
9.9965E2	-2.040816E0
10.001E2	34.97942E0
10.005E2	60E0
10.01E2	49.89817E0
10.014E2	41.97183E0
10.018E2	49.86807E0
10.023E2	42.91939E0
10.027E2	4.347826E0
10.031E2	57.85953E0
10.035E2	53.62998E0
10.04E2	-1.090909E0
10.044E2	60.99071E0
10.048E2	65.45012E0
10.053E2	21.77986E0
10.057E2	69.45813E0
10.061E2	15.76227E0
10.066E2	-91.20879E0
10.07E2	-7.81893E0
10.074E2	-16.60232E0
10.079E2	68.03653E0
10.083E2	12.18391E0
10.087E2	20.84592E0
10.092E2	34.97942E0
10.096E2	34.7079E0
10.1E2	-34.95935E0
10.105E2	49.86226E0
10.109E2	71.98697E0
10.113E2	-1.321586E0
10.118E2	51.54185E0
10.122E2	96.92308E0
10.126E2	18.97436E0
10.131E2	65.73705E0
10.135E2	70.3504E0
10.139E2	-2.439024E0
10.144E2	11.45511E0
10.148E2	66.03774E0
10.152E2	78.19905E0
10.157E2	52.67176E0
10.161E2	5.531915E0
10.165E2	69.163E0
10.17E2	52.98805E0
10.174E2	24.49568E0
10.178E2	24.10501E0
10.182E2	19.82379E0
10.187E2	40.65934E0
10.191E2	10.76923E0
10.195E2	85.78199E0
10.2E2	-7.096774E0
10.204E2	60.53512E0
10.208E2	61.13074E0
10.213E2	35.90734E0
10.217E2	83.13253E0
10.221E2	19.82379E0
10.226E2	36.76815E0
10.23E2	-10.61453E0
10.234E2	30.23256E0
10.239E2	24.30279E0
10.243E2	-47.96748E0
10.247E2	-8.943089E0
10.252E2	29.20962E0
10.256E2	6.666667E0
10.26E2	47.8673E0
10.264E2	62.11454E0
10.269E2	1.226087E2
10.273E2	-9.74359E0
10.277E2	75.40107E0
10.282E2	52.65018E0
10.286E2	-1.627451E2
10.29E2	-1E2
10.295E2	46.61355E0
10.299E2	48.01762E0
10.303E2	5.4E2
10.308E2	33.9207E0
10.312E2	-6.748466E0
10.316E2	13.74408E0
10.321E2	90.47619E0
10.325E2	2.104478E2
10.329E2	21.55477E0
10.333E2	-52.94118E0
10.338E2	30.99415E0
10.342E2	95.91837E0
10.346E2	62.60163E0
10.351E2	57.63547E0
10.355E2	1.829932E2
10.359E2	95.91837E0
10.364E2	1.137405E2
10.368E2	2.428571E2
10.372E2	83.20611E0
10.377E2	22.1374E0
10.381E2	34.97942E0
10.385E2	19.7861E0
10.389E2	1.729412E2
10.394E2	-68E0
10.398E2	2.294118E2
10.402E2	5.068966E2
10.407E2	4.837838E2
10.411E2	83.82979E0
10.415E2	69.8324E0
10.42E2	-55.14019E0
10.424E2	-34.69388E0
10.428E2	-1E2
10.433E2	-2.846154E2
10.437E2	-8.396947E0
10.441E2	55.89744E0
10.445E2	-30.43478E0
10.45E2	-6.976744E0
10.454E2	-15.19435E0
10.458E2	54.21687E0
10.463E2	-2.263158E2
10.467E2	3.740741E2
10.471E2	94.59459E0
10.476E2	87.7095E0
10.48E2	1.285714E2
10.484E2	3.210526E2
10.488E2	1.074074E2
10.493E2	-59.59596E0
10.497E2	6.024096E0
10.501E2	1.216867E2
10.506E2	76.68712E0
10.51E2	68.42105E0
10.514E2	2.259259E2
10.519E2	40.96916E0
10.523E2	-1.761905E2
10.527E2	48.26255E0
10.531E2	3.540541E2
10.536E2	-1E2
10.54E2	1.015267E2
10.544E2	1.015267E2
10.549E2	-1.213333E2
10.553E2	34.19355E0
10.557E2	1.666667E2
10.562E2	4.538462E2
10.566E2	-2.302326E2
10.57E2	93.36493E0
10.574E2	4.868914E0
10.579E2	38.81279E0
10.583E2	17.66667E2
10.587E2	-2.6E2
10.592E2	-24.70588E0
10.596E2	5.050505E0
10.6E2	1.014388E2
10.605E2	-1.486957E2
10.609E2	3.597122E0
10.613E2	-1.463768E2
10.617E2	69.8324E0
10.622E2	-11.65644E0
10.626E2	31.10368E0
10.63E2	-40.74074E0
10.635E2	-56.75676E0
10.639E2	92.82051E0
10.643E2	1.340136E2
10.647E2	-34.95935E0
10.652E2	67.16418E0
10.656E2	88.23529E0
10.66E2	6.157895E2
10.665E2	58.24176E0
10.669E2	-1.827586E2
10.673E2	3.148148E2
10.677E2	2.45098E2
10.682E2	-72.88136E0
10.686E2	44.57831E0
10.69E2	-1.186047E2
10.695E2	-55.14019E0
10.699E2	-59.32203E0
10.703E2	23.07692E0
10.708E2	-2.084746E2
10.712E2	14.28571E0
10.716E2	-57.89474E0
10.72E2	43.91534E0
10.725E2	8.108108E0
10.729E2	9.105263E2
10.733E2	13.13131E0
10.738E2	27.17949E0
10.742E2	23.07692E0
10.746E2	-13.25301E0
10.75E2	4.517241E2
10.755E2	1.105263E2
10.759E2	-5.923077E2
10.763E2	-8.571429E0
10.768E2	82.45614E0
10.772E2	-4.477612E0
10.776E2	1.015267E2
10.78E2	-91.91919E0
10.785E2	65.51724E0
10.789E2	54.94071E0
10.793E2	1.164706E2
10.798E2	5.054054E2
10.802E2	2.885714E2
10.806E2	2.022222E2
10.81E2	-15.44715E0
10.815E2	90.6383E0
10.819E2	1.37037E2
10.823E2	-17.24138E0
10.828E2	-78.37838E0
10.832E2	-19.66667E2
10.836E2	88.53503E0
10.84E2	1.823529E2
10.845E2	41.4966E0
10.849E2	-1.592593E2
10.853E2	3.622222E2
10.857E2	1.985075E2
10.862E2	67.44186E0
10.866E2	-6.052632E2
10.87E2	-1.935484E0
10.875E2	-7.4E2
10.879E2	57.26496E0
10.883E2	-3.105263E2
10.887E2	11.36364E2
10.892E2	-18.36735E0
10.896E2	-1.727273E2
10.9E2	1.711864E2
10.905E2	-3.181818E2
10.909E2	5.4E2
10.913E2	84.61538E0
10.917E2	3.114286E2
10.922E2	1.482759E2
10.926E2	-64.44444E0
10.93E2	87.1345E0
10.934E2	44.57831E0
10.939E2	-1.186047E2
10.943E2	-84.31373E0
10.947E2	59.24171E0
10.952E2	8.230769E2
10.956E2	-31.42857E0
10.96E2	2.070707E2
10.964E2	95.91837E0
10.969E2	-74.19355E0
10.973E2	84.17266E0
10.977E2	-12.87129E0
10.981E2	2.2E2
10.986E2	1.138614E2
10.99E2	-1.228571E2
10.994E2	-1.131148E2
10.999E2	6.135135E2
11.003E2	1.601626E2
11.007E2	1.302158E2
11.011E2	-4.076923E2
11.016E2	1.137405E2
11.02E2	1.285714E2
11.024E2	42.13198E0
11.028E2	32.68293E0
11.033E2	-1E2
11.037E2	36.05442E0
11.041E2	2.034483E2
11.046E2	4.925926E2
11.05E2	38.66667E0
11.054E2	66.23377E0
11.058E2	88.71795E0
11.063E2	76.68712E0
11.067E2	50.58824E0
11.071E2	39.35484E0
11.075E2	-56.75676E0
11.08E2	-1.542373E2
11.084E2	-62.61682E0
11.088E2	1.573913E2
11.093E2	23.87097E0
11.097E2	50.58824E0
11.101E2	62.56684E0
